0.10042     0.51065     0.11276     0.18296     0.24086     0.17948     0.10884     0.16262     0.64813     0.15771     0.33162     0.10293    0.069401     0.14661     0.28519     0.40454
0.10217     0.51116     0.11167     0.18555     0.24417     0.17865     0.11001     0.18923     0.66322     0.15869     0.33331    0.096731      0.0723     0.14647      0.2859     0.40802
0.10401     0.50594     0.11161     0.18744     0.24614     0.18282     0.11224     0.17696     0.66193     0.15876     0.32513    0.098335    0.072383     0.14619     0.27702      0.4123
0.10258     0.51104     0.11092     0.18399     0.23983     0.17625     0.10797      0.1691     0.63921     0.15375     0.33488    0.097406    0.070532     0.14485     0.27863      0.3987
0.10088     0.50166     0.11181     0.18006     0.23408     0.17432     0.10668     0.16412     0.64319     0.15391     0.32518    0.084378    0.070405     0.14429     0.27432     0.39971
0.10045     0.51106      0.1115     0.18054     0.23274       0.173     0.10754     0.17064     0.63258     0.15393      0.3267    0.081179    0.069402     0.14361     0.26388     0.40818
0.10062     0.49392     0.11064     0.18132     0.23417      0.1749     0.10628      0.1842     0.64313     0.15652     0.31881    0.076796    0.069107     0.14414     0.26902     0.41147
0.10035     0.49899     0.11113     0.18209     0.23348     0.17478     0.10569     0.17905     0.65261     0.15432      0.3344    0.085455    0.070257     0.14284       0.257     0.39985
0.098676      0.5031     0.11144     0.18184     0.23701     0.17622     0.10779     0.17124     0.64634     0.15585     0.33293     0.09142    0.070533      0.1444     0.28199     0.40363
0.10144     0.50674     0.11228     0.18391     0.23893     0.17965     0.10957     0.18252     0.64462      0.1573     0.34642    0.090983     0.07238     0.14492     0.27661     0.42335
0.099715      0.5157     0.11182     0.18581     0.24113     0.18199     0.11163     0.19861     0.64464     0.15678     0.32844    0.095242    0.072861     0.14619     0.28564     0.40901
0.10171     0.50947     0.11099     0.18655     0.24192     0.18516     0.11489     0.20634      0.6562     0.15175     0.33752    0.099295    0.076137     0.14978      0.2896     0.42762
0.10048     0.50115     0.11175     0.17736     0.23468     0.18373     0.10882     0.20346     0.63868     0.14216     0.34535    0.089589    0.072702      0.1393     0.28254     0.41899
0.10117     0.50359     0.10922     0.17304     0.23264      0.1826      0.1086     0.19753     0.61904     0.13835     0.33445     0.09005    0.075717     0.13972     0.28687     0.42243
0.098219     0.50601     0.10895     0.17218     0.23334     0.18412     0.10516     0.20191     0.63883     0.13921     0.33953    0.086892    0.074994     0.13986     0.29427     0.43085
0.098596     0.50464     0.10966     0.17394      0.2336     0.18449     0.10756     0.19601     0.63732     0.14002     0.33933    0.078184    0.074615     0.14029     0.29067     0.43031
0.098502     0.50802       0.111     0.17407      0.2312      0.1851     0.10911      0.1958     0.62689     0.13873     0.34273    0.091052    0.075893     0.14019      0.2799     0.42115
0.10243     0.51134     0.11136     0.17333     0.23231     0.18742     0.11123     0.20843     0.66051     0.13692     0.33017    0.094231    0.077716     0.13867     0.30632     0.42205
0.10239     0.49952     0.11245     0.17337     0.23732     0.18993      0.1121     0.22014     0.63289     0.13678     0.34454     0.08558    0.078262     0.13956     0.29582       0.437
0.099123     0.50094     0.11361     0.17395     0.23806     0.19165     0.11198      0.2051     0.64027     0.13878     0.34194    0.079816     0.07686     0.13954     0.29867     0.43898
0.10207       0.516     0.11496     0.17652     0.24068     0.19302     0.11523     0.22464     0.63657     0.14046     0.34233    0.085753    0.078655     0.14092      0.3117     0.43308
0.10121     0.52013     0.11303     0.17415     0.23552     0.19204     0.11212     0.20647     0.63445     0.13699     0.34133    0.072166    0.077281     0.13862     0.30753     0.42167
0.099881     0.51446      0.1119     0.17171     0.23259     0.18802     0.10941     0.20419        0.63     0.13625     0.34025    0.088394    0.076057     0.13746     0.28962     0.41953
0.10165     0.50487     0.10862     0.17192     0.23314     0.19037     0.10873      0.2187     0.62968     0.13769     0.31687    0.088977    0.075311     0.13871     0.31106     0.43464
0.098775     0.50285     0.11003     0.17317     0.23426     0.18699      0.1106     0.20575     0.64795      0.1378     0.31872    0.075379    0.075126     0.13893     0.30184     0.44228
0.10283     0.52715     0.11071     0.17487     0.23286     0.18661     0.10933     0.20366     0.64673     0.13986      0.3333     0.09231    0.076026     0.14094     0.28979     0.43153
0.10046     0.51774     0.10912     0.17489     0.23021     0.18935     0.11139     0.21709     0.65356     0.14104     0.32857    0.088362    0.075435     0.13972     0.29523     0.42084
0.099195     0.52237     0.11278     0.17713     0.23339     0.19091      0.1111     0.21004     0.64746     0.14227     0.34508    0.083781     0.07474     0.13924     0.29033     0.44203
0.10197     0.51272     0.11287     0.17869     0.23361     0.18984     0.11141     0.21094     0.65433     0.14211     0.33245    0.096408    0.077609     0.14068     0.27948     0.44388
0.10041      0.5181     0.11477     0.17927     0.23603      0.1922       0.112     0.21475     0.64749     0.14349     0.33886    0.086984    0.077571      0.1425     0.29851      0.4254
0.10333     0.50258     0.11382     0.18109      0.2369     0.19214     0.11357     0.20063     0.65724     0.14215     0.33041    0.083267    0.076854     0.14345     0.30468     0.44783
0.09917     0.51637     0.11311     0.17584     0.23109     0.18744     0.10843     0.19908     0.64912     0.13957     0.32373    0.095157    0.076426     0.14031     0.31431     0.41431
0.10047     0.50391     0.11286      0.1749      0.2267     0.18477     0.10659     0.20113     0.64916     0.13884     0.33034    0.095303     0.07467     0.13984     0.28255     0.42764
0.098969     0.50583     0.11005     0.17402       0.227     0.18422     0.10864      0.2093     0.63732     0.13916     0.32032    0.088804    0.075318     0.13969     0.28939     0.43628
0.10078     0.50777     0.11129     0.17528     0.22734      0.1831     0.10764     0.20161     0.64374     0.13931     0.31798    0.079729     0.07377     0.13983     0.28508     0.42764
0.098898     0.51736     0.11228     0.17499      0.2271     0.18533     0.10847      0.1991     0.64181     0.14042     0.32805    0.081217    0.075176     0.14098     0.28268     0.42675
0.10097     0.51673     0.11168     0.17742     0.22832     0.18812     0.11104     0.20548     0.65501     0.14136     0.33102    0.089502    0.075953     0.13924     0.29044     0.43231
0.099874     0.51493     0.11218     0.17918     0.22976     0.18957     0.11187     0.22307     0.65515     0.14101     0.32586    0.079324    0.075344     0.14216     0.29347     0.43672
0.10513     0.51499     0.11293     0.18009     0.23124     0.19015     0.11254     0.21963     0.67213     0.14335     0.33695    0.089241    0.076707     0.14226     0.30149     0.45022
0.09837     0.51295     0.11518     0.18156     0.23335     0.19239     0.11293     0.20882     0.67877     0.14338     0.33203    0.093411    0.076442      0.1426     0.30913     0.44754
0.10358     0.53249     0.11361     0.18141      0.2311     0.18931     0.11137     0.20472     0.65194     0.14175     0.34406    0.074205      0.0766     0.14169     0.29851     0.43426
0.10018     0.51446     0.11287     0.17715     0.22484     0.18536     0.10925     0.20227     0.64726     0.14024     0.33159    0.078602    0.074595     0.14025      0.2886     0.41725
0.10085     0.50313     0.11144     0.17832      0.2224      0.1827     0.10741     0.19441     0.64295     0.14052     0.31592    0.083577    0.077091     0.14089     0.28797     0.42586
0.099757     0.50274      0.1129     0.17641     0.22512     0.18427     0.10839     0.19321     0.65047     0.13857      0.3353    0.082128    0.075329     0.13934     0.29839     0.42345
0.10089     0.52521     0.11199     0.17743     0.22397     0.18364     0.10954     0.20804     0.64808     0.14032     0.33175     0.08788    0.075141     0.13912     0.29415      0.4441
0.10371     0.50962     0.11347     0.17958     0.22704     0.18556     0.10964     0.21691     0.64791     0.14045     0.33857    0.077463    0.075418     0.13983     0.28355     0.44152
0.10051      0.5119     0.11421     0.17946     0.22884     0.18771     0.11045     0.20557     0.64288     0.14015     0.34401    0.093478    0.077414     0.14074     0.29993     0.45094
0.10226     0.51311     0.11365     0.18128     0.23211     0.19064     0.11125      0.2079     0.64491     0.14206      0.3314    0.079302     0.07609     0.14284     0.29371     0.45924
0.10072      0.5199     0.11638     0.18173     0.23332     0.19193     0.11262     0.20451     0.65375     0.14243     0.33633      0.1037    0.076908     0.14319     0.30365     0.43233
0.10023     0.51855     0.11427     0.18221     0.23434     0.19252     0.11269     0.22079     0.64317     0.14326     0.33597     0.09423    0.077961     0.14192     0.30595     0.43573
0.10217     0.51782     0.11258     0.17906     0.22707     0.18605     0.10926     0.21471     0.64797     0.13882     0.33051    0.082843    0.075033     0.14155     0.28693     0.42126
0.10075     0.51314     0.11341     0.17919     0.22357     0.18361     0.10815     0.20975     0.65062      0.1381     0.33866    0.076839    0.075956     0.13983     0.29996     0.43018
0.10111     0.49889     0.11217     0.17752     0.22503     0.18585      0.1077     0.20407     0.63959     0.13875     0.33771    0.079435    0.076251     0.14122     0.29281     0.43527
0.09897     0.51569      0.1149     0.17821     0.22566     0.18666      0.1097     0.19907     0.65569     0.14031     0.32818    0.090291    0.076781     0.14004     0.29865     0.44047
0.10037     0.51939     0.11331      0.1792     0.22613     0.18775     0.11036     0.20925     0.65298     0.14006      0.3211    0.074881    0.076414     0.14068     0.29682     0.43699
0.098587     0.51634     0.11275     0.17919     0.22826     0.18759     0.11047     0.19893     0.65138     0.14143     0.33066    0.074016    0.076965      0.1414     0.30989     0.44515
0.10136     0.51398     0.11425     0.18078     0.23023     0.18961     0.11142     0.21834     0.65224     0.14223     0.32758    0.090343    0.077178     0.14212     0.31355     0.43409
0.10289     0.50055     0.11396     0.18342     0.23102     0.19076     0.11274      0.2015     0.65297     0.14207     0.34213    0.079259    0.076525     0.14301     0.30083     0.43508
0.10139     0.52111     0.11556     0.18249     0.23154     0.19236     0.11217      0.2056     0.65316     0.14348      0.3521    0.076243    0.076498     0.14187       0.297     0.44556
0.10108     0.52102     0.11291     0.17886     0.22644      0.1854     0.10861     0.22562     0.65915     0.14089     0.33223    0.088317    0.076007     0.13964     0.28578     0.41005
0.098243     0.52027     0.11336     0.17875     0.22413     0.18493     0.10726     0.19474     0.64563     0.13832      0.3401    0.077516    0.075585     0.14121     0.28852       0.429
0.10157     0.51649     0.11162     0.17781     0.22465     0.18429     0.10912     0.21317     0.63251     0.14062     0.33686    0.077074    0.075312     0.14151     0.29262     0.43347
0.10099      0.5088     0.11282     0.17838     0.22552     0.18682     0.10944     0.20087     0.63528      0.1396     0.34032    0.081418    0.074995     0.14122     0.30146     0.42987
0.10114     0.50254     0.11257      0.1788     0.22594     0.18744        0.11     0.20746     0.65198     0.14079     0.33508     0.08285    0.076083     0.14064     0.29393     0.44178
0.10307     0.50843     0.11379     0.17951     0.22812     0.18913     0.11046     0.20476     0.65421     0.14175     0.33291    0.082998    0.075775     0.14179     0.29418     0.44207
0.10087     0.52489     0.11439      0.1807     0.23111     0.18986     0.11238     0.21757     0.65897     0.14415     0.31962    0.091117    0.076668     0.14213     0.29252     0.43642
0.10056     0.50932     0.11435     0.18163     0.23101     0.19181     0.11236     0.21455     0.65039     0.14404      0.3325    0.093446    0.077907      0.1441     0.29829     0.44279
0.1007     0.51989     0.11622     0.18403     0.23204     0.19106     0.11446     0.21886     0.65399     0.14392     0.33931    0.082638    0.077097     0.14265     0.28847     0.43262
0.10218     0.51537      0.1121     0.17875     0.22627     0.18519     0.10959     0.20147     0.65591     0.14084     0.32049    0.082719    0.076908     0.14187     0.29959     0.43648
0.10103     0.51464     0.11229     0.17797      0.2237     0.18617     0.10952     0.21496     0.65163     0.13929      0.3233    0.098892    0.076031     0.14005      0.2853     0.43196
0.097687     0.51848     0.11175     0.17876      0.2248     0.18739     0.10859     0.19623     0.66124     0.14014     0.33679    0.089274    0.076953     0.14072     0.29805     0.41671
0.10196     0.51088     0.11087     0.17762     0.22623     0.18527      0.1099     0.20118     0.64221     0.14135     0.30792    0.069674    0.075491     0.14125     0.29162     0.42384
0.09764      0.5074     0.11293     0.17995     0.22655     0.18768     0.11081     0.20382     0.63215     0.14213     0.34097    0.079916    0.076386     0.14057     0.30534     0.44717
0.099287       0.519      0.1139     0.18051      0.2278     0.18763     0.11173     0.20823     0.63608     0.14248     0.32307     0.08419    0.077494     0.13961     0.29687     0.43995
0.10016     0.51995     0.11417     0.18036     0.23161     0.19161     0.11485     0.20647     0.65427     0.14323     0.34131    0.085986    0.078328     0.14476     0.28928     0.43547
0.099823     0.51708     0.11207     0.18068     0.23254     0.19144      0.1127     0.22328     0.65205     0.14479     0.33646    0.088227    0.076913      0.1424     0.30377     0.45099
0.10487     0.52119      0.1149     0.18409     0.23564       0.193     0.11443      0.2179     0.65882     0.14513     0.33907    0.086332    0.076104     0.14351     0.28969     0.43773
0.099724     0.52932     0.11388      0.1841     0.23108     0.18854     0.11251     0.19715     0.65165     0.14371      0.3337    0.078861    0.076774     0.14287     0.29021     0.45083
0.098844     0.49405     0.11225     0.17981     0.22726     0.18482     0.11024     0.21012     0.65049     0.14312     0.32877    0.076416    0.075232     0.14059     0.29719     0.43227
0.10016     0.51044     0.11127     0.17832     0.22787      0.1859     0.11029     0.19948     0.64179     0.14089      0.3209     0.08102    0.074384     0.13874     0.28817     0.41992
0.099352     0.50982     0.11055     0.17923     0.22931     0.18747     0.10931     0.20617     0.65262     0.14322     0.33523    0.080478    0.076068     0.13919     0.28138     0.43421
0.09688     0.49982     0.11077     0.17901     0.22934      0.1878     0.11126     0.19747     0.65066     0.14413     0.33727    0.063328    0.076647     0.14105     0.29003     0.44289
0.10001     0.49684     0.11149     0.18135     0.23269     0.18743     0.11165     0.19487     0.65438      0.1457     0.32841    0.096411    0.076225     0.14177     0.29835     0.43978
0.10033     0.51984      0.1117     0.18179     0.23324     0.18991     0.11273     0.19465     0.63505      0.1447     0.33253     0.07952    0.077863     0.14121     0.30009     0.44176
0.097922     0.51116     0.11449     0.18365     0.23943     0.19073     0.11504     0.22103     0.66009     0.14627     0.33714     0.09942    0.077971     0.14217     0.31366     0.44062
0.10248     0.52077      0.1146     0.18672     0.24161     0.19307     0.11475     0.21736     0.66361     0.15012      0.3295    0.094367     0.07912     0.14321     0.29325     0.46144
0.10255     0.51618     0.11414     0.18968     0.24857     0.19788     0.11796     0.20967     0.66776     0.15165       0.332    0.093486    0.081303     0.14287     0.29609     0.46334
0.10007     0.51204     0.11256     0.18767     0.24498     0.19311     0.11515     0.20365     0.66562     0.14651     0.33299    0.093011    0.080704     0.14094       0.306     0.45199
0.099006     0.50976       0.112     0.18532      0.2429     0.19253     0.11465     0.20639     0.65507     0.14846     0.33653     0.08251    0.080017     0.13947     0.29013     0.45948
0.099502       0.497     0.11064     0.18566     0.24533     0.19268      0.1142     0.20806     0.64669     0.14956     0.33814    0.066435    0.080135      0.1407     0.28426     0.45128
0.099843     0.51445     0.11109      0.1875     0.25143     0.19603      0.1157     0.21034     0.64784     0.14932     0.33115    0.082675    0.080368     0.13981     0.29587      0.4506
0.10225     0.51349     0.11207     0.18749     0.25186     0.19734     0.11683     0.21544     0.64974     0.15095     0.33986    0.093897    0.079006     0.14165     0.29216      0.4484
0.10019     0.52937     0.11163     0.18873     0.25531     0.20057     0.11727     0.21797     0.65618     0.15179     0.33689    0.089504    0.080732     0.14195      0.3064     0.44389
0.099032     0.51433     0.11199      0.1897     0.25792     0.20294      0.1191     0.21366     0.66279     0.15187     0.32425    0.094557    0.080128     0.14307      0.2955     0.46867
0.10081     0.52056     0.11306     0.19186     0.26115     0.20654      0.1196     0.21414     0.66488     0.15271     0.32185    0.099904    0.081664     0.14452     0.30106     0.45822
0.10261     0.51085     0.11287     0.19115     0.25932     0.20366     0.12169     0.22195      0.6732     0.15388     0.33097    0.093637    0.083778     0.14461      0.3095     0.45342
0.10115     0.51001     0.11309     0.19023      0.2544     0.19904     0.11824     0.21684     0.66315     0.15164     0.32939    0.082834    0.081275     0.14127     0.28726     0.45677
0.099563     0.50558     0.11151     0.18933     0.25269     0.19758     0.11781     0.21207      0.6413     0.15168     0.31994    0.089548    0.080356     0.14044     0.30046     0.45688
0.098678     0.52582     0.11237      0.1873     0.25164     0.19751     0.11853     0.20557     0.65443     0.14961     0.34146    0.094856    0.079173      0.1398     0.28096     0.45011
0.1011     0.52248     0.11121     0.18857     0.25272     0.19758     0.11731     0.20714     0.65873     0.14886     0.31467    0.089775    0.080524     0.14075     0.28686     0.44124
0.099607     0.50907      0.1096     0.18704     0.24896     0.19579     0.11893     0.21089     0.66681     0.15137     0.33123    0.092549    0.080055     0.13908     0.30292     0.44725
0.10085     0.51979     0.11152     0.18813     0.24507      0.1967     0.11722     0.21528     0.65416     0.15143     0.33131    0.087878    0.080338     0.14052     0.29098     0.44265
0.10228     0.52269     0.11192      0.1894     0.24368     0.19658     0.11866     0.21446     0.66717     0.15025     0.32608     0.08023    0.079738     0.14174     0.29949      0.4479
0.098031     0.52579     0.11253     0.18924     0.24339     0.19519     0.11965     0.21172     0.66446     0.15188     0.31689    0.089352    0.080302     0.14204     0.31645       0.457
0.10035     0.51772     0.11301     0.19202     0.24395     0.19552     0.12029      0.2117     0.66152     0.15259     0.32394    0.085409    0.079538     0.14366     0.29613     0.45993
0.10446     0.51493     0.11288     0.19015     0.23961     0.19318     0.11833     0.20277       0.667     0.14932     0.33218    0.088741    0.077483     0.14225     0.29408     0.43362
0.10049     0.52245     0.11073     0.18504     0.23466     0.18797     0.11481     0.21211     0.64288     0.14699     0.32303    0.088727    0.076815     0.14143     0.28288     0.43754
0.10043     0.52166     0.11032     0.18471     0.23257     0.18633     0.11416     0.20481     0.66353     0.14694     0.32425    0.083061    0.076415     0.14037     0.29719     0.44621
0.10225     0.49889     0.11195     0.18374     0.23336     0.18813     0.11475     0.21374     0.64468     0.14573     0.31995    0.087116    0.076456     0.13936     0.28718     0.43734
0.10058     0.52507     0.11025     0.18557     0.23271     0.18517      0.1144     0.21924     0.64756     0.14694     0.31814    0.094762    0.076242     0.14144     0.27831     0.43861
0.1016     0.51855     0.11064     0.18554     0.23462     0.18717     0.11507     0.20598     0.65648     0.14878     0.30791     0.08039    0.077196     0.14063     0.31524     0.44352
0.099313     0.52328     0.11196     0.18913     0.23769      0.1899     0.11633     0.21177     0.66367     0.15208     0.33668    0.090133    0.078721     0.14303     0.30334     0.44977
0.10171     0.52602     0.11166     0.19248     0.24169     0.19139     0.11963     0.22121     0.66837     0.15515     0.33601    0.098149     0.07877     0.14308     0.29855     0.45999
0.10235      0.5147      0.1109     0.19587     0.24409       0.196     0.12117     0.22512     0.66739     0.15679     0.33489    0.077465    0.079019     0.14419     0.29968     0.46342
0.098876     0.52177      0.1099      0.1951      0.2432       0.194     0.12048     0.21899     0.67996     0.15693     0.31612    0.084222     0.07845     0.14354     0.29704     0.46091
0.10275     0.51885     0.10985     0.19121     0.23713     0.19001     0.11653     0.21078     0.67518     0.15371     0.33462     0.08506    0.078159     0.14149     0.29137     0.45528
0.10062     0.52376     0.10769     0.18893     0.23721     0.18969     0.11539     0.21772      0.6396     0.15197     0.32014    0.084327    0.076643     0.14127     0.29366      0.4523
0.099285     0.50652     0.10803     0.18968     0.23759     0.18687     0.11804     0.21425     0.66848     0.15038     0.32887    0.076633    0.077412     0.14129     0.29453     0.44857
0.10121     0.50923     0.10925     0.18893     0.23759     0.18764     0.11808     0.22708     0.66331     0.15011     0.32059    0.099808    0.078004     0.14242     0.28949     0.45656
0.10029     0.51611     0.10946      0.1883     0.23803     0.19004     0.11561     0.21421     0.66751     0.15121     0.32802    0.085266    0.077746     0.14372     0.30389     0.45721
0.10077     0.51626     0.11004     0.18992      0.2408     0.19088      0.1189     0.20338     0.66751     0.15292     0.33428     0.10014    0.078111     0.14271     0.28827     0.46018
0.10421     0.52388     0.11009     0.19281     0.24046     0.19137     0.11872     0.21905     0.65681     0.15321     0.34761    0.093394    0.077766     0.14337     0.30463     0.46413
0.10319     0.53119     0.10955     0.19418     0.24264     0.19218     0.11902     0.21188     0.67671     0.15272     0.33599     0.10306    0.078228     0.14286     0.30132     0.46071
0.10084     0.52265     0.11059     0.19142     0.23895     0.18779      0.1153     0.21169     0.67507     0.15061     0.33913    0.086411    0.076933     0.14217     0.29575     0.43619
0.099718     0.51637     0.10862      0.1883     0.23607     0.18479     0.11339      0.2084     0.66829     0.15008     0.31453    0.086827    0.076966     0.14134     0.28417     0.45284
0.09887     0.50323     0.10754     0.19004     0.23534     0.18676     0.11284     0.19516     0.66196      0.1515     0.32525    0.083104    0.079057     0.14252     0.28273     0.44419
0.10015     0.52625     0.10893     0.18775     0.23646     0.18903     0.11506     0.21916     0.65279     0.14821     0.33346    0.084488    0.077452     0.14186     0.30111     0.45292
0.099252      0.5366     0.10916     0.18796     0.23714     0.18813     0.11378      0.2069     0.66958     0.14813     0.33276     0.09839    0.077291     0.14124     0.28744       0.447
0.10211     0.51686     0.10995      0.1872     0.23556     0.18854      0.1158     0.21952     0.64785     0.14737     0.33834     0.10148    0.077313     0.14217     0.29431     0.42665
0.10014     0.52726     0.11095     0.18738       0.239     0.19187     0.11678     0.21278     0.66132     0.14701     0.33863    0.082323    0.078692     0.14236     0.29827     0.43506
0.10284     0.52359     0.11038     0.19016     0.24241     0.19473     0.11787     0.21744     0.65912     0.15055     0.33187    0.082119     0.07978     0.14366      0.2866     0.44687
0.1023     0.54078      0.1114     0.18884     0.24097     0.19408     0.11723     0.22219     0.65281     0.14742     0.34057    0.075401    0.080188     0.14362     0.29159     0.43193
0.098552     0.52147     0.10962     0.18588     0.23627     0.18863     0.11327     0.20779     0.66417     0.14719     0.33285    0.085544    0.076561     0.14076     0.29823     0.44947
0.098991     0.52874     0.10808     0.18483     0.23639     0.18957     0.11376     0.20436     0.66164     0.14725     0.32171    0.080428    0.078174     0.14142     0.28693     0.43629
0.10063     0.51355     0.10892     0.18519     0.23716     0.18942     0.11372     0.21603     0.66202     0.14668     0.33564    0.088543    0.079572     0.14166     0.28832     0.43783
0.099758     0.52026     0.10891     0.18763     0.23876      0.1917      0.1162     0.22399     0.66123     0.14658      0.3325    0.095115    0.080939     0.13957     0.30406     0.44813
0.096832     0.52508     0.10803     0.18878     0.24236     0.19486     0.11654      0.2202      0.6514     0.14896     0.34582    0.094368      0.0821     0.13748     0.29607     0.45978
0.09916     0.52135     0.10778     0.18723     0.24892     0.19811     0.12056     0.22541     0.66937     0.14855     0.33618    0.086926    0.082727     0.13755     0.30884     0.45187
0.10103     0.51979     0.10799     0.18798     0.25094     0.20042     0.12058     0.21962     0.66992     0.14757     0.33536    0.082172    0.083118     0.13758     0.32476     0.47601
0.10154     0.54164     0.11018     0.19049     0.25092     0.20222     0.12187     0.23793     0.67481     0.14741      0.3391     0.10331    0.083792     0.13911     0.32265     0.45714
0.10067     0.53419        0.11     0.18797     0.24781     0.19859     0.12014     0.22618     0.66071     0.14639     0.32318    0.091012    0.082232     0.13716     0.30714     0.45458
0.1024      0.5291     0.10993      0.1869     0.24365     0.19566     0.11754     0.22534     0.65458      0.1452      0.3418    0.087222    0.080915     0.13662     0.30041     0.44741
0.10164      0.5268     0.10747      0.1849     0.24398     0.19425     0.11732     0.22172     0.66019     0.14598     0.32222    0.093608    0.080333     0.13578     0.29143     0.44153
0.099656     0.52512     0.10949      0.1856     0.24536     0.19713     0.11795     0.23107     0.66443     0.14472     0.33962    0.089544    0.083408     0.13551     0.30192     0.46704
0.099608     0.53164     0.10862     0.18664     0.24732      0.1977      0.1198     0.22197     0.66467      0.1492     0.33119    0.091685     0.08428     0.13739      0.2929     0.46649
0.096919     0.52826     0.10791      0.1879     0.24791     0.20264     0.12171     0.23815     0.67724      0.1504     0.33298    0.094201    0.082254     0.13886     0.31377     0.47358
0.10236     0.53157     0.10808     0.18757     0.24921     0.20438     0.12248     0.23231     0.66073     0.14709     0.34244    0.095064    0.083658     0.13892     0.30877     0.47671
0.099181     0.53505     0.10935     0.18742     0.25046     0.20327      0.1227     0.24031     0.66373     0.14605     0.34097    0.093523    0.082473     0.14112     0.30714     0.47357
0.10167     0.53782     0.11099     0.18905      0.2526     0.20457     0.12303     0.23681     0.67348     0.14994     0.35035    0.069927    0.083832     0.14048     0.32206     0.47165
0.10298     0.52475     0.10933     0.18713     0.25035     0.19979     0.11888     0.22286     0.64707     0.14478     0.32558    0.088342    0.081812     0.13644     0.30821     0.45757
0.099805     0.53131     0.11036     0.18729     0.25287     0.20159      0.1205     0.24395      0.6522     0.14804     0.32727     0.10115     0.08227     0.13671     0.30545     0.46413
0.10208     0.52251      0.1092     0.18837        0.26     0.20864     0.12133     0.24425     0.66765     0.15019     0.32846    0.099702    0.082688     0.14017     0.29628     0.45981
0.10042     0.53504     0.10979     0.19207     0.26478     0.20756     0.12241     0.23138     0.67048     0.15531     0.32593     0.10542    0.080963     0.14304     0.30747     0.45452
0.099005     0.54581     0.10954     0.19493     0.26523     0.20594     0.12171     0.22208     0.67416     0.15527     0.32804    0.094887    0.082314     0.14368      0.2966     0.44643
0.10142     0.53924     0.11062     0.19392     0.26829     0.20759     0.12095     0.22637     0.68131      0.1539     0.33212    0.088696    0.083391     0.14434     0.28399      0.4585
0.10276     0.53373     0.11213     0.19772     0.27103     0.20892     0.12448     0.21885     0.66341     0.15794      0.3445     0.08849    0.082894     0.14451     0.30971     0.46249
0.10331     0.53728     0.11278      0.2034     0.27996     0.21241     0.12524     0.21503     0.67219     0.15927     0.33559    0.093775    0.083905     0.14409     0.30627     0.45907
0.1068      0.5338     0.11192     0.20291      0.2829     0.21645     0.12587     0.23525     0.66838      0.1605     0.33385    0.092735    0.085569     0.14501     0.29617     0.46149
0.10314     0.53861     0.11214     0.19924      0.2774     0.21042     0.12218     0.21117      0.6675     0.15572     0.32881    0.085908    0.082593     0.14391     0.28995     0.44668
0.099445     0.52709     0.11192     0.19595     0.27331     0.20582     0.12069     0.21389      0.6581     0.15386     0.33371    0.092214    0.083167     0.14239     0.29573     0.45775
0.10047      0.5317     0.11078     0.19294     0.26999     0.20432     0.11982     0.21026     0.67083     0.15327     0.32804    0.084787    0.083622     0.14094     0.30761     0.44344
0.10218     0.52772     0.10951     0.19478     0.27228      0.2071     0.12166     0.22514     0.65721     0.15566     0.34129    0.079753    0.083878     0.14193     0.29685     0.47428
0.10124     0.52772     0.11042     0.19382     0.26906     0.20753     0.12094     0.21627     0.67168     0.15642     0.32617    0.082165    0.083823     0.14427     0.30099     0.45793
0.10062     0.53797     0.11051     0.19512     0.27142     0.21078     0.12343     0.21953     0.67067     0.15746     0.32116    0.078954    0.084678     0.14297      0.2987     0.46002
0.10093     0.54331     0.11191     0.19837     0.27383     0.21228      0.1248     0.22029     0.66029     0.15843     0.32279    0.089975     0.08522     0.14406     0.31746     0.45929
0.10277     0.51995     0.11179     0.19974     0.27727     0.21243     0.12355     0.23169     0.66175     0.15929     0.34018    0.095513    0.085023     0.14417     0.30157     0.47524
0.10403      0.5373     0.11445     0.20117      0.2788     0.21292     0.12319     0.23056     0.67875     0.15776     0.32147    0.091912    0.085899     0.14564     0.30645     0.46251
0.10324      0.5397     0.11276     0.20004     0.27355     0.20918     0.12378     0.21802     0.65158     0.15488     0.32268    0.090551    0.085323     0.14277     0.30599     0.46478
0.10068     0.52891      0.1112     0.19458     0.26965     0.20643     0.11904      0.2395     0.67106     0.15345     0.32476     0.10393    0.084094     0.14146     0.30189     0.45114
0.098942     0.52676     0.11021     0.19234     0.26759     0.20544     0.11903     0.21655     0.66823     0.15288     0.32192    0.073372     0.08218     0.14248     0.28658     0.45684
0.10026     0.52007     0.11107      0.1941     0.27107     0.20791     0.12116     0.22198     0.66056     0.15634     0.32833    0.094269    0.082875     0.14234     0.29481     0.45601
0.09939     0.52146     0.11017     0.19456     0.27678     0.21031      0.1234     0.22482     0.67204     0.15997     0.34218    0.091129    0.083332     0.14304      0.2875     0.45449
0.10365     0.53188     0.10961     0.19755     0.28038     0.21288     0.12419     0.23335     0.67081      0.1606     0.32055    0.099739    0.084038     0.14481     0.31237     0.47159
0.10507     0.52533     0.11271     0.20092     0.28179     0.21391     0.12556     0.23108     0.67212     0.16097     0.34454    0.095901    0.086216     0.14549     0.30593     0.46944
0.10442     0.52544     0.11296     0.19906     0.28236      0.2145     0.12548     0.23129     0.66366     0.16077     0.32918     0.08852     0.08562     0.14461     0.31339     0.47463
0.10422     0.54177     0.11411     0.20105     0.28337     0.21708     0.12622       0.236     0.68329     0.16115     0.33321    0.094913    0.085208     0.14644     0.30696     0.46645
0.1038     0.53773     0.11465     0.20184     0.28093     0.21367     0.12482     0.22915     0.66882     0.15912     0.32867    0.099314    0.085696     0.14426     0.30376     0.47483
0.10192     0.53616     0.11156     0.19695     0.27146     0.20813     0.12038     0.23003     0.65629     0.15421     0.32795    0.095676    0.083359     0.14349     0.30445     0.47054
0.10217     0.53962     0.11187     0.19479     0.27038     0.20716     0.12069     0.23515     0.67629     0.15745     0.33391    0.087483    0.084479     0.14324     0.29646     0.45639
0.10114     0.52578     0.11065     0.19712     0.26779      0.2088     0.12139     0.21502     0.66559      0.1572     0.31767    0.089748    0.083583     0.14347     0.28603     0.45752
0.10273     0.53179     0.11236     0.19612     0.26894     0.20849     0.12159     0.23041     0.66652     0.15579     0.34516    0.093392    0.084678      0.1432     0.31275      0.4584
0.10511     0.54282     0.11196     0.19563     0.26329     0.20623     0.12205      0.2144      0.6632      0.1557     0.32744     0.08534    0.080303     0.14464     0.29635     0.45626
0.1021     0.52515     0.11337     0.19547     0.26106     0.20276     0.12109      0.2257     0.66052     0.15564     0.33929    0.083622    0.082493     0.14433     0.31619     0.47273
0.10233     0.54582      0.1137     0.19652     0.25846      0.2008     0.12115     0.22024     0.66691     0.15756     0.32135    0.086344    0.081265     0.14593     0.28442     0.45764
0.1018     0.55221     0.11359     0.19842     0.26038     0.20068     0.12099     0.21157     0.67411     0.15751     0.33145     0.10401    0.080755      0.1458     0.31066     0.46057
0.099926     0.53245     0.11371     0.19729     0.26205     0.20008     0.12162     0.21983     0.66882      0.1567     0.32911    0.082699    0.082528     0.14671     0.30726     0.46277
0.10081     0.53816     0.11289     0.19537     0.25533     0.19824     0.11987     0.21752     0.67012     0.15575     0.31384    0.084932    0.079912     0.14394     0.29059     0.45326
0.10305     0.52838      0.1116     0.19194     0.24909     0.19151     0.11531     0.21398     0.65278     0.15246     0.33288    0.092632    0.078682     0.14379     0.29685      0.4628
0.10056     0.53295     0.11113     0.19191     0.24835     0.19116     0.11634     0.21663     0.65652     0.15232     0.32335    0.092733    0.078675     0.14556     0.30836     0.44627
0.099413     0.51337     0.11111     0.19143     0.24877     0.19321      0.1166      0.2067     0.66431     0.15243      0.3276    0.085431    0.079697     0.14414     0.30378     0.45407
0.10124      0.5298     0.11097     0.18824     0.24904     0.19385     0.11848     0.21565     0.65282     0.14773     0.32614    0.080934    0.078893     0.14403     0.30553     0.45564
0.10354     0.51427     0.11296     0.18667     0.25181     0.19349     0.11683       0.209     0.66394     0.15186     0.32708     0.09358     0.07733     0.14597     0.29177     0.44723
0.09899     0.53091      0.1113     0.19523     0.25188     0.19213     0.11839     0.20123     0.66943     0.15934     0.33949    0.099123    0.077939     0.14487     0.28111     0.44796
0.10361     0.53371     0.11012     0.20003     0.25594     0.19486     0.11975     0.21446     0.67052     0.16213     0.32279    0.093214    0.082164     0.14632     0.29929     0.46797
0.10341     0.53293      0.1117     0.20193     0.26276     0.20179     0.12175     0.21547     0.68756     0.16321     0.34337    0.099159    0.082972     0.14948     0.31527     0.46474
0.10381     0.53405     0.11113     0.19736     0.26583     0.20098     0.11964     0.21269     0.67372      0.1575     0.34038     0.07646    0.082904     0.14641     0.29403     0.46863
0.1018     0.53206     0.11064     0.19681     0.26846      0.2017     0.11955     0.21004     0.65991     0.15699     0.33591    0.089111    0.082955     0.14557     0.30484     0.45787
0.098692     0.51275     0.11051     0.19472     0.26639     0.19856     0.11748     0.20479     0.66539     0.15359     0.31781    0.086744    0.082282     0.14366     0.29353     0.45443
0.1011      0.5196     0.11094     0.19329     0.26694     0.19908       0.118     0.19156     0.64814     0.15165     0.31509      0.0835    0.083278     0.14415     0.29489     0.45027
0.10007     0.52637     0.11148     0.19223     0.26811     0.20177     0.11776      0.2199     0.64726     0.15169     0.32376    0.082971    0.083917     0.14662     0.28883     0.46972
0.10266     0.51471     0.11105      0.1907     0.26882     0.20266     0.12034     0.22078     0.65928     0.15294     0.32752    0.081774    0.082964     0.14652     0.30486     0.45592
0.10253     0.52977     0.11203      0.1925      0.2689     0.20253     0.12104     0.20988     0.65591     0.15362     0.33191     0.10459    0.082699     0.14558     0.30963     0.45691
0.10277     0.54859     0.11149     0.19393     0.26946     0.20435     0.11958     0.21687     0.66653     0.15219     0.32422    0.093785    0.082849     0.14769     0.30352      0.4558
0.10335     0.53779     0.11325     0.19273     0.26993     0.20409     0.12031     0.20786       0.666       0.149     0.34377    0.094733    0.081904     0.14815       0.295     0.42797
0.099753     0.53281     0.11236     0.18659     0.26093     0.20027     0.11719     0.21535     0.64838     0.14387     0.32685    0.090283    0.083365     0.14367      0.2946     0.45317
0.10166     0.51955     0.11134     0.18199     0.25715     0.19852     0.11581     0.20814     0.64101     0.13993     0.33403    0.075418    0.082465     0.14249     0.29806     0.44644
0.10372     0.52236     0.11307     0.17961     0.25711     0.20032     0.11742     0.22878     0.64716      0.1389     0.33399    0.085988    0.081896      0.1432     0.30679     0.43842
0.10356     0.52501     0.11113     0.17874     0.25145     0.20051     0.11716     0.22084     0.64595     0.13766      0.3287    0.083114    0.082937     0.14138     0.31357     0.44338
0.10164     0.52252     0.11158     0.17717     0.25006     0.20065     0.11601     0.20795     0.64486     0.14001     0.32226    0.088738    0.081718     0.14362     0.30185     0.43082
0.10103      0.5364     0.11335     0.17769     0.25355     0.20134     0.11661     0.22154     0.65435     0.13989     0.32194    0.092082    0.081952     0.14479     0.29969     0.44361
0.099993     0.52725     0.11218       0.181     0.25533     0.20253     0.11793     0.21726      0.6585     0.14154       0.332    0.094487    0.081278     0.14565     0.30258     0.46973
0.10259     0.53102     0.11244     0.18361     0.25643     0.20335     0.11927     0.21815     0.65552     0.14459     0.32882     0.10411    0.081836     0.14511     0.30029     0.44038
0.10146     0.53661     0.11315     0.18372      0.2552     0.20088      0.1175     0.22418       0.645     0.14544     0.32774    0.073898    0.080888     0.14407       0.308     0.45348
0.10027     0.52826     0.11099     0.18191     0.25555     0.19971      0.1169      0.2125     0.65335     0.14608     0.32689     0.09079    0.081314     0.14337     0.29833     0.45223
0.10145     0.52552     0.11093      0.1852     0.26168     0.20107     0.11939     0.21859     0.63897        0.15     0.33778    0.088133    0.081964     0.14396      0.2995     0.44413
0.10131     0.52535     0.11141     0.19015     0.26568     0.20487     0.12121     0.22024     0.65589      0.1519     0.33155      0.1021    0.081788     0.14408      0.2941      0.4429
0.10039     0.52125     0.11215     0.18905     0.26777     0.20703     0.12178     0.22841     0.66367     0.15263      0.3139    0.085663    0.081804     0.14253     0.30617     0.44812
0.1029     0.52179     0.11257     0.18989     0.26834     0.20637      0.1213     0.22162     0.65842     0.15043     0.32073    0.092027    0.082777     0.14413     0.30794     0.44746
0.10364     0.51899     0.11248     0.19033     0.26727     0.20732     0.12192     0.22668     0.66593     0.15044     0.34506    0.090394    0.084617     0.14378     0.30821     0.45326
0.10253     0.52599     0.11359     0.18996     0.26655     0.20782     0.12118     0.23091     0.67419     0.15039     0.34179    0.083316    0.085152     0.14537     0.29323     0.44866
0.10475     0.52459     0.11172     0.19049     0.26455     0.20465     0.11987     0.22619     0.66336     0.14663     0.33102    0.074866    0.082746     0.14513     0.30051     0.43779
0.10187     0.52301     0.11253     0.18688     0.25906     0.20175     0.11689      0.2196     0.65395     0.14305     0.32509    0.065832     0.07993     0.14087     0.29993     0.42246
0.10208     0.51409      0.1115     0.18165     0.25746     0.19827     0.11606     0.21906     0.64014      0.1418     0.33298    0.071069    0.080539     0.13975     0.29973     0.43111
0.10035     0.52011     0.11254     0.18311     0.25813     0.20166     0.11749     0.22706     0.64372     0.13929      0.3401    0.092915      0.0812     0.14034     0.30311     0.41923
0.10175     0.52529     0.11052     0.18318     0.25741     0.20212      0.1158     0.22234     0.64719     0.14052     0.33778    0.091751     0.08222     0.14112     0.30498      0.4303
0.101     0.52784     0.11286     0.18223     0.26035      0.2034     0.11679      0.2182     0.64853     0.13952     0.33964    0.080474     0.08073     0.14013     0.30074     0.41647
0.10289     0.53781     0.11184     0.18331      0.2633     0.20598     0.11833      0.2255     0.63791     0.14195     0.33449    0.079779    0.082263     0.14187     0.29835     0.42604
0.098768     0.52638     0.11131     0.18477     0.26768     0.20909     0.12021     0.22548     0.65984      0.1439     0.33317    0.093856    0.083977      0.1438     0.29155     0.43981
0.10297     0.52765     0.11221     0.18508     0.26613     0.20939     0.12074      0.2218     0.64366     0.14172     0.33668    0.093909    0.081929     0.14245     0.30811      0.4394
0.10034     0.52467     0.11202     0.18298     0.26715     0.20422     0.11795     0.21301      0.6493     0.13989     0.32805    0.089206    0.081928     0.14102     0.29202     0.43121
0.10079     0.50947     0.11134     0.18089     0.26866     0.20628     0.11625     0.22258     0.63818     0.14457     0.34307    0.088888    0.082615       0.143     0.29131     0.42972
0.10035     0.51156      0.1108      0.1846     0.27202     0.20757     0.11943     0.22265     0.65957     0.14405     0.33881    0.086244    0.084219     0.14298     0.28914     0.44304
0.10192     0.54111     0.11261     0.18611     0.27367     0.20755     0.11795     0.20918     0.65466     0.14504     0.33774    0.081428    0.083359     0.14131     0.29165     0.45259
0.10457      0.5313     0.11201     0.18603     0.27597     0.20887     0.11983     0.21462       0.656     0.14582     0.32658     0.08877    0.084465     0.14305     0.29799     0.42923
0.1041     0.52368     0.11252     0.18797     0.28045     0.21204     0.12258      0.2256     0.65394     0.14987     0.32965    0.080494    0.086974     0.14373     0.29245     0.44622
0.10113     0.52728     0.11269     0.19069     0.29006     0.21637     0.12421     0.21734     0.64626     0.15266     0.32332    0.091003    0.087299     0.14573     0.29569     0.44742
0.10444     0.53482     0.11289     0.19623      0.2958     0.22219     0.12517     0.23433     0.65842     0.15776     0.32548    0.073518    0.087268     0.14602     0.30636     0.45517
0.10237     0.52614     0.11467     0.19311     0.28574     0.21208     0.12145     0.21303     0.65541     0.15331     0.31546    0.077055    0.086261     0.14564      0.2883     0.44027
0.10328     0.53139     0.11141     0.19043     0.27754     0.20719     0.11836     0.20895     0.66409     0.15282     0.32167    0.085095    0.087001     0.14419      0.3018     0.43657
0.10126     0.51221     0.11164     0.18988     0.27664     0.20639     0.11779     0.21092     0.65939     0.15207     0.32341    0.077653    0.085376     0.14443     0.28018     0.45692
0.10084     0.52824     0.11066     0.19013     0.27502      0.2051      0.1184     0.20175     0.66593      0.1516     0.32596     0.08595    0.085061     0.14481     0.30026     0.45083
0.10211     0.52654     0.11077     0.19087     0.27156     0.20525     0.11835     0.20382     0.65785     0.15056     0.33006    0.085104    0.083806     0.14525     0.29064     0.43844
0.10167     0.52798     0.11346     0.19204      0.2731     0.20513     0.11839     0.20829     0.64291     0.15062     0.32783    0.083366    0.084126     0.14712     0.31188     0.44148
0.10342     0.53134     0.11251      0.1924     0.27372     0.20742     0.12107     0.20786     0.65116     0.15021     0.33155    0.089328    0.085762     0.14589     0.29493     0.44479
0.10129     0.54131     0.11295     0.19217     0.27507     0.20802      0.1215     0.21286      0.6508     0.15066     0.33324     0.09194    0.084875     0.14683      0.3044     0.44619
0.1043     0.53759     0.11583     0.19237     0.27803        0.21     0.12274     0.22317     0.66168     0.15195     0.33389    0.083445    0.087513     0.14566     0.29072     0.43839
0.10542     0.52287     0.11281     0.18863     0.27139     0.20482     0.11997     0.21519     0.64489      0.1485     0.32842     0.09091    0.084057     0.14576     0.29077     0.44947
0.10273     0.52457     0.11085     0.18615     0.26797     0.20185     0.11797     0.22432     0.65989     0.14584      0.3127    0.092661    0.084304     0.14471     0.29956     0.44831
0.10301     0.51921     0.11218     0.18557      0.2675     0.20168     0.11749     0.21912     0.65369     0.14734     0.32772    0.084595    0.084316     0.14542     0.30736      0.4448
0.10115     0.52529     0.11098     0.18585     0.26997     0.20332     0.11824     0.21343     0.63529      0.1468     0.33035    0.084727    0.084498     0.14561     0.30175     0.44245
0.10161     0.52854      0.1126     0.18662     0.26893     0.20459     0.12011     0.22003     0.65334      0.1457     0.31602    0.093565    0.083879     0.14458     0.29911     0.43472
0.10243      0.5214     0.11159     0.18756     0.27316     0.20708     0.12039     0.22349     0.64382      0.1474     0.32035    0.082732    0.085895     0.14362     0.29447     0.43754
0.10285      0.5339     0.11457      0.1881     0.27508     0.20995     0.12229     0.21399     0.64796     0.14744     0.32629    0.094316    0.086486     0.14551     0.29177     0.43147
0.10409     0.53489     0.11345        0.19      0.2788     0.21084     0.12331     0.22028     0.66504     0.14872     0.34449     0.10046    0.087985     0.14577     0.29726     0.45046
0.10272     0.53383     0.11323     0.19131     0.28014     0.21297      0.1244     0.22292     0.67644     0.14939     0.32882    0.077349    0.086545      0.1479     0.30497     0.45535
0.1069     0.53309     0.11403     0.19031     0.27572     0.20955      0.1193     0.22554     0.65756     0.14773      0.3355    0.094413    0.085477     0.14601     0.30705     0.43772
0.099083     0.51786     0.11287     0.18639     0.27199     0.20554     0.11804     0.21383     0.64895     0.14557     0.32292    0.082098     0.08515     0.14449     0.29354     0.45384
0.10281     0.51596     0.11251     0.18572      0.2704     0.20446     0.11951     0.22767     0.66244     0.14658     0.33366    0.082774    0.085931     0.14476     0.30235     0.43531
0.10344     0.52164     0.11219     0.18618     0.27142     0.20522     0.11878     0.23096     0.66299      0.1475     0.32417    0.079357    0.085099     0.14325     0.29625     0.44921
0.10092     0.51735     0.11232     0.18536     0.27189     0.20701     0.11978     0.22244       0.652     0.14637     0.33629    0.073644    0.083744     0.14437     0.29605     0.43644
0.10199     0.51224     0.11293     0.18715     0.27488     0.20784     0.12114     0.23145     0.66377     0.14878     0.34012    0.081711    0.084984      0.1463     0.30188     0.44939
0.10256     0.53897      0.1124      0.1898     0.27618     0.20918     0.12178     0.23287     0.66047      0.1494     0.33914    0.090013    0.085342     0.14714     0.30122     0.44626
0.10394     0.54124     0.11452     0.19234     0.27667     0.21134     0.12106     0.23568     0.65921     0.15044     0.34272    0.088962     0.08528     0.14755     0.29771     0.44128
0.105     0.53243     0.11534     0.19236     0.27858      0.2142     0.12192      0.2414     0.66463     0.15095     0.34153    0.088097    0.086919     0.14699     0.31187     0.42974
0.10594     0.54425      0.1148     0.19329     0.27864     0.21137     0.12107     0.22729     0.67082      0.1518     0.34121    0.091255      0.0846     0.14649     0.29323     0.44554
0.10056     0.51741     0.11421     0.18731     0.27257     0.20578     0.12022     0.21681     0.65659     0.14802      0.3363    0.081481    0.084474     0.14623     0.29344      0.4407
0.10257     0.52432     0.11276     0.18709      0.2699     0.20544     0.11673     0.20834     0.65822     0.14604     0.33153     0.09303    0.083968     0.14376     0.30871     0.43594
0.10071     0.53306     0.11105     0.18619     0.27149      0.2073     0.11821     0.22037     0.66011      0.1486     0.33471    0.081899    0.083669     0.14286     0.29597     0.43704
0.1038      0.5192      0.1116      0.1862     0.27073     0.20762     0.11942     0.21101     0.64035     0.14748     0.33126    0.087107    0.085934     0.14477     0.30542      0.4333
0.10248     0.52943     0.11189     0.18844     0.27537     0.20733     0.11987      0.2189     0.65092     0.14898      0.3212    0.093654    0.084975     0.14528     0.30612     0.44659
0.10431     0.51679     0.11238     0.19022     0.27426     0.20902     0.12126     0.23135     0.66311     0.14987     0.33458    0.087705    0.083211     0.14414     0.29367     0.44153
0.10213     0.52242     0.11336     0.18927     0.27707     0.21164     0.12342      0.2068      0.6661     0.14965     0.34629    0.087781    0.084875     0.14656     0.29401     0.44067
0.10351     0.52819     0.11343     0.18964     0.27849     0.21158     0.12143     0.22596     0.67227      0.1511     0.35029    0.087119    0.085713     0.14737     0.30241     0.44248
0.10354     0.55191     0.11491     0.19012     0.28089      0.2125     0.12252     0.22359     0.66812     0.15141     0.33941    0.083305    0.086716     0.14738     0.29651     0.45274
0.10526     0.54806     0.11319     0.19028     0.27636     0.21099     0.11971     0.22788     0.66511     0.14921     0.33338    0.095481     0.08433     0.14511     0.29416     0.44605
0.10209     0.52201      0.1124     0.18649     0.27109     0.20547     0.11821     0.23332     0.65713     0.14724     0.33732    0.082673    0.083544     0.14286     0.30062     0.45339
0.101     0.51497     0.11261     0.18485     0.27049     0.20501     0.11911     0.22766     0.65599     0.14857     0.32718    0.087897    0.083949     0.14496     0.29949     0.44527
0.10384      0.5118     0.11217     0.18637     0.27246      0.2067     0.11785     0.21935     0.65051     0.14695     0.34066    0.090029     0.08403     0.14462     0.29916     0.44276
0.10488     0.51431     0.11099     0.18762     0.27133     0.20602     0.11876     0.21382     0.64425     0.14602      0.3165    0.083184    0.083584     0.14452     0.29032     0.44373
0.10163      0.5303      0.1145     0.18644      0.2736     0.20854     0.11987     0.22333     0.66672     0.14836     0.32684    0.074832    0.084505     0.14527     0.30323     0.43717
0.1037     0.52511     0.11284     0.18904     0.27514     0.20842     0.12151     0.23682     0.66128      0.1481     0.33697    0.078634    0.083916     0.14614     0.29637      0.4438
0.10393     0.53537      0.1151      0.1895     0.27715     0.20908     0.12296     0.22092     0.66515     0.14974     0.34335    0.081879    0.084812     0.14622     0.29744     0.45024
0.10547     0.53852     0.11358     0.18997     0.27748      0.2111      0.1216     0.21583      0.6684     0.15001     0.32658    0.083109    0.085468     0.14651     0.30609     0.45407
0.10351     0.53614     0.11458     0.19264     0.27761     0.21301     0.12184     0.22539     0.67262     0.14978     0.32902    0.089078    0.086691     0.14708     0.30631     0.45989
0.10378     0.54094      0.1134     0.19165     0.27326     0.20768     0.11931     0.22124     0.66271     0.14801     0.34132    0.080389    0.085273     0.14395     0.31113     0.43617
0.10338     0.52811     0.11343     0.18723     0.27071     0.20547     0.11718     0.21504     0.64796     0.14608     0.33122    0.083993    0.084723     0.14406     0.30002     0.43145
0.10107     0.53165     0.11303     0.18502     0.27036     0.20274     0.11591      0.2113     0.65398     0.14512     0.33779    0.084862    0.082869     0.14395     0.29848     0.43122
0.099516      0.5242     0.11276     0.18618     0.26854     0.20483     0.11833     0.21371     0.65233     0.14584     0.33279    0.073373    0.083505     0.14289     0.29192     0.42737
0.10103     0.51247     0.11296     0.18586     0.27033      0.2059     0.11777     0.22795     0.64069     0.14594     0.33216    0.093628    0.084584     0.14235     0.29512     0.44942
0.10492     0.52791     0.11183     0.18883     0.27219     0.20621     0.11915     0.21983     0.65065     0.14488     0.33968    0.094878    0.085714     0.14385     0.28033      0.4395
0.104     0.52842     0.11311     0.18755     0.27265     0.20834     0.12048     0.21976     0.65278     0.14749     0.32417    0.075482    0.085074     0.14581     0.28295     0.44102
0.10209     0.52734     0.11442     0.18924     0.27496     0.20903     0.12093     0.22256     0.67059     0.14677     0.32789    0.078687    0.086037     0.14657     0.28598     0.44609
0.10502     0.52967      0.1135     0.18884       0.276      0.2106      0.1228     0.21896     0.65134     0.14856      0.3493    0.097584    0.085447     0.14621     0.28632      0.4513
0.10378     0.52519     0.11491     0.19043     0.27637     0.21124     0.12075     0.23053     0.65458     0.14808     0.34688    0.090786    0.086193     0.14487     0.30546     0.43906
0.1015     0.51902      0.1131     0.18579     0.27118     0.20516     0.11713     0.22065     0.65311     0.14632     0.33576    0.083076    0.083971     0.14433     0.28112     0.44156
0.10313     0.51784     0.11128     0.18542     0.27031     0.20394     0.11771     0.21617     0.65171     0.14614     0.33398    0.086955    0.083547     0.14449      0.2918     0.43885
0.099506     0.51114     0.11329      0.1851     0.27081     0.20605     0.11831     0.21341     0.64436     0.14605     0.33097    0.070918    0.084107     0.14384     0.28523      0.4334
0.10159     0.52736     0.11327     0.18584     0.27061     0.20615     0.11856     0.21266     0.65117       0.146      0.3464    0.083429    0.084004     0.14284     0.28828     0.43139
0.10168      0.5325     0.11476     0.18743      0.2722     0.20654     0.11906     0.21189     0.64909     0.14611     0.33628    0.085097     0.08386     0.14442     0.29494     0.43676
0.10111      0.5224      0.1133      0.1887     0.27445     0.20761     0.12066     0.22374     0.65703     0.14791     0.35045    0.084449    0.085153     0.14526     0.29014     0.44532
0.10171     0.53115     0.11522     0.18809     0.27502     0.20905     0.12279     0.22348     0.66221     0.14834     0.32622    0.075098    0.084907     0.14551      0.2944     0.43516
0.10107     0.53176     0.11339     0.18852     0.27791     0.21052     0.12172     0.23519     0.66183     0.14906     0.34207    0.081452    0.086643     0.14712     0.30226     0.46277
0.1059     0.53542     0.11413     0.18975     0.27919     0.21236     0.12262     0.22603      0.6744     0.15082     0.34883    0.074784    0.086319     0.14744     0.30201     0.44744
0.1042     0.53181     0.11436     0.18971     0.27446     0.20849     0.12013     0.23093     0.66228     0.14762     0.33344    0.080422    0.084277     0.14597     0.28946     0.43623
0.10413     0.53144     0.11088     0.18471     0.26979     0.20616     0.11803     0.20952     0.65379     0.14596     0.33037    0.084531     0.08421      0.1435      0.2939     0.43072
0.10017     0.51982      0.1125     0.18488     0.27032     0.20425     0.11673      0.2147      0.6487     0.14667     0.32308    0.079312    0.086155       0.144      0.2893     0.44416
0.10217     0.51565     0.11337     0.18584     0.27096      0.2058     0.11856     0.20649     0.65472     0.14511     0.33084    0.077172    0.083979     0.14391     0.29284     0.44348
0.10237     0.51541     0.11285     0.18616     0.27048     0.20637     0.11831      0.2161     0.65247     0.14607     0.34334    0.088761    0.084603     0.14339     0.28375     0.45393
0.099309      0.5193     0.11303     0.18538     0.27383     0.20715     0.11945      0.2214     0.65389     0.14671      0.3297    0.089962    0.084149     0.14455     0.29017      0.4458
0.10318     0.52136     0.11327     0.18848     0.27381     0.20943      0.1198     0.22184      0.6672     0.14698      0.3378    0.087034     0.08553     0.14634     0.28616     0.43856
0.10457     0.52234      0.1134     0.18765     0.27646     0.21111     0.12082     0.22159     0.66313     0.14972     0.32546    0.086088    0.085771     0.14678     0.31618     0.43241
0.10449     0.52421     0.11331     0.18905     0.27723     0.21119     0.12082       0.223     0.66143     0.15079     0.34509    0.081527    0.086731     0.14649     0.30389     0.45721
0.10381     0.51869     0.11438     0.19089     0.27942     0.21481     0.12298     0.22416     0.66418     0.15139     0.34347    0.098116    0.086649     0.14795     0.30977     0.45352
0.10106     0.52027     0.11721     0.18913     0.27612     0.20993     0.12015      0.2103     0.65852      0.1478     0.34688    0.086912    0.086041     0.14578     0.31072     0.43118
0.10342      0.5253     0.11229     0.18478     0.27067     0.20703     0.11756     0.21637     0.65533     0.14776     0.33703     0.09441    0.084376      0.1459      0.2903     0.44082
0.10411     0.50972     0.11334     0.18545     0.26887     0.20522     0.11819      0.2219     0.64572     0.14507     0.32406    0.081411    0.084384     0.14488     0.28248      0.4247
0.10126     0.52179     0.11306     0.18494     0.27131     0.20637     0.11898     0.20979     0.64896     0.14588     0.33833    0.084804    0.083573     0.14352     0.29707     0.45128
0.10165     0.52407      0.1133     0.18441     0.27048     0.20698     0.11773     0.20201     0.65137     0.14564     0.32253     0.08063    0.084124     0.14339     0.30984     0.44509
0.10293     0.52417     0.11311     0.18516     0.27104     0.20579     0.11858     0.21789     0.66322     0.14826      0.3258    0.090212    0.084788     0.14433      0.3075     0.42281
0.10055     0.52475     0.11162     0.18749     0.27434     0.20833     0.12043     0.22883     0.65975     0.14809     0.33851    0.092304    0.085727     0.14595     0.29174     0.43362
0.10234     0.52872     0.11399     0.18778     0.27585     0.21098     0.11943     0.22765     0.65675     0.14725     0.32231    0.087027    0.085113     0.14698       0.294     0.44163
0.10399     0.52839     0.11454     0.18979     0.27779     0.21158     0.12118     0.22238     0.67025       0.149     0.34845    0.081875    0.086558     0.14704     0.29615     0.44189
0.10566       0.525     0.11564     0.19027     0.27832     0.21313      0.1227     0.21824     0.66709     0.14962     0.33902    0.091701    0.085042      0.1475     0.30149     0.45659
0.10371     0.52075     0.11472     0.18926     0.27661      0.2096     0.12092       0.219     0.65822     0.14957     0.33243    0.098925    0.085092     0.14536     0.31099     0.45219
0.10166     0.51931     0.11236     0.18688     0.27112     0.20524     0.11735     0.22372     0.65223     0.14633     0.32873    0.098321    0.085234      0.1441     0.28934     0.43476
0.1005     0.52723     0.11394      0.1845     0.26896     0.20304     0.11646     0.21862     0.64757     0.14721     0.33527    0.082518    0.083794     0.14295     0.29667     0.43345
0.10104     0.50558     0.11309     0.18662      0.2705     0.20422     0.11732     0.21137      0.6566     0.14556     0.34114    0.081309    0.083884     0.14503     0.30204      0.4473
0.10173     0.51009     0.11159     0.18574     0.27016     0.20517     0.11842      0.2158     0.65384     0.14643      0.3433    0.075331    0.081732     0.14367     0.29739     0.44341
0.10323     0.52057      0.1105      0.1847     0.27229     0.20662     0.11934     0.21381     0.66653     0.14524     0.34316    0.082202     0.08653     0.14461     0.29466     0.44485
0.10434     0.51752     0.11305     0.18599     0.27133     0.20796     0.11961      0.2142     0.64565     0.14704     0.32387    0.077913    0.084664     0.14511     0.28864      0.4327
0.10235      0.5089      0.1128     0.18778     0.27446     0.20859     0.12171     0.20831     0.65793     0.14764      0.3373    0.096124    0.085967     0.14618     0.30563     0.45155
0.10082      0.5319     0.11396     0.18863     0.27661     0.20989     0.12258     0.21582     0.65418     0.14845     0.33796    0.091115    0.086645     0.14657     0.30372      0.4516
0.10496     0.52561     0.11401     0.18769     0.27655     0.21398     0.12044     0.21783     0.65605      0.1499     0.33504    0.087265    0.087865     0.14888       0.321     0.46394
0.10283     0.52444     0.11547     0.18996     0.27882      0.2132     0.12231     0.21964     0.67819     0.15132     0.34609    0.090868    0.086437     0.14645     0.31054     0.46972
0.10254     0.53025     0.11168     0.18622     0.27197     0.20675      0.1183     0.21594     0.66719     0.14785     0.33052    0.088206    0.086444     0.14591     0.27725     0.45225
0.099972     0.52901     0.11336     0.18516     0.27097      0.2042     0.11723     0.21725     0.66768     0.14605     0.34246    0.097588    0.084512      0.1445     0.29247     0.44917
0.10476     0.51966     0.11313     0.18517     0.27125     0.20481      0.1188     0.21217     0.65379     0.14793     0.32187    0.073501    0.084871     0.14251     0.29417     0.44441
0.10223     0.53418     0.11276      0.1865     0.27111     0.20543     0.11796     0.20882     0.66004     0.14882     0.32933    0.096774    0.085023     0.14369      0.2913     0.43676
0.10308     0.53281     0.11322     0.18682     0.27054     0.20672     0.11841     0.21017     0.66103     0.14846     0.34289    0.081292    0.085196     0.14509     0.30387     0.44967
0.1019     0.51645     0.11194     0.18746     0.27263     0.20637     0.12012     0.22544     0.65754     0.14622     0.34936    0.083609    0.085978     0.14593     0.29244     0.44958
0.10141     0.51856     0.11482     0.18807      0.2743     0.20924     0.12114     0.22471     0.66935     0.14914     0.34726    0.094736    0.085551     0.14699     0.29816      0.4452
0.10217     0.53676     0.11355     0.19088     0.27614     0.21122     0.12222     0.21279     0.67403     0.14953     0.33187     0.09762    0.085423     0.14724     0.29535     0.46415
0.09948     0.53166     0.11528     0.19162      0.2771     0.21262     0.12227     0.22397     0.67389     0.15232     0.33666    0.090574    0.089648      0.1475     0.29676     0.45976
0.1025     0.52868     0.11411     0.19011     0.27574     0.21194     0.11985     0.23174     0.66475      0.1519     0.34093    0.094021    0.086364     0.14605     0.29777     0.44988
0.10289     0.52869     0.11378     0.18637     0.27001     0.20531     0.11756     0.22652     0.67011     0.14853     0.34882    0.080401    0.085699     0.14539     0.30559     0.44652
0.10252     0.52619     0.11295     0.18568     0.26894     0.20394     0.11819     0.21895     0.65977      0.1472     0.33759    0.085794    0.085174     0.14497     0.29586     0.47202
0.1013     0.51364     0.11215     0.18667     0.26842     0.20592     0.11884      0.2157     0.66207     0.14715     0.33362     0.09169    0.085572     0.14313     0.27642      0.4307
0.10108     0.51021     0.11174     0.18669     0.26797     0.20492     0.11749     0.21778      0.6468     0.14809     0.33954    0.085294     0.08664     0.14392     0.29677     0.44589
0.10201     0.52297     0.11212      0.1866     0.27181     0.20603      0.1186     0.20109     0.65064     0.14806     0.32978    0.099008    0.086668     0.14623     0.29679     0.45719
0.10276      0.5124     0.11347     0.18847     0.27119     0.20782     0.11854     0.21143     0.65027     0.14931     0.33896     0.07804    0.087836      0.1446     0.30995     0.46004
0.10476     0.52237     0.11395     0.18803     0.27453      0.2082     0.12058     0.21595     0.64547     0.15085     0.34551    0.081837    0.086942     0.14755     0.31067      0.4485
0.099666     0.52881     0.11505     0.18998     0.27449     0.20784     0.12157     0.21304     0.66722     0.15058     0.33971    0.082515    0.086419     0.14638      0.2898     0.45829
0.10399     0.52091      0.1128       0.192     0.27707     0.21184     0.12264     0.22899     0.66447     0.15142     0.34094    0.084532    0.087852     0.14724     0.29735     0.44466
0.10315     0.51694     0.11383     0.19041     0.27547     0.20969     0.12158     0.23302     0.66018     0.14921     0.35758    0.083008    0.087143     0.14674     0.30453     0.45372
0.10312     0.51983     0.11231     0.18672     0.27001     0.20622     0.11764     0.20712     0.66931     0.14739     0.33852     0.09323    0.083255     0.14488     0.29222     0.43987
0.10174     0.51459      0.1107     0.18361     0.26806     0.20364     0.11756     0.21194     0.64951     0.14666     0.33764    0.085044    0.084511     0.14446     0.29193     0.44746
0.10125     0.51525     0.11201     0.18448     0.26867     0.20574     0.11742     0.21227     0.65378     0.14833     0.32731    0.079764    0.084843     0.14391     0.29127     0.45061
0.10165     0.51077     0.11116     0.18679      0.2703     0.20427     0.11706     0.20713     0.65267     0.14621     0.33491    0.068262    0.085424      0.1441     0.29815     0.43351
0.10358     0.52827     0.11231     0.18767     0.27195     0.20629     0.11914     0.21932     0.65451     0.14777     0.34265    0.090395    0.085925     0.14513      0.2925     0.44591
0.10361     0.51277     0.11248     0.18803     0.27329     0.20782     0.11982     0.21699     0.65203     0.15033     0.33651    0.080485    0.086537      0.1459     0.29994     0.44122
0.1045     0.53142     0.11332     0.18957     0.27517     0.20928     0.12021     0.21794     0.67438     0.15011      0.3406    0.080278    0.087162      0.1458     0.31016     0.44284
0.098159     0.52528     0.11358     0.18984     0.27632     0.20948     0.12283     0.22482     0.64978     0.15152     0.33125    0.080865     0.08714     0.14632     0.30903     0.45675
0.10234     0.52792     0.11341     0.19093     0.27519     0.21013     0.12269       0.215     0.65981      0.1503     0.32747     0.08181     0.08651     0.14792     0.29494     0.45288
0.10472     0.52999     0.11398     0.19269     0.27791     0.21361     0.12134     0.22528     0.66667     0.15142     0.33365    0.089696     0.08571     0.14747     0.30668     0.46493
0.10224     0.52826      0.1131     0.18625     0.27189     0.20699     0.11941     0.20478     0.64851      0.1478     0.32453    0.093488    0.084338     0.14472      0.3069     0.45515
0.10451     0.51668     0.11287     0.18602     0.27011     0.20337     0.11741     0.20377     0.65215     0.14732      0.3395    0.093726    0.084315     0.14432     0.28928     0.44802
0.099781     0.52516     0.11172     0.18623     0.26907     0.20298     0.11713     0.20478     0.65649     0.14602     0.33582    0.085871    0.084176      0.1443     0.28529     0.44916
0.10239     0.52622     0.11128     0.18636     0.26909     0.20423     0.11687     0.21217     0.65731     0.14531       0.331    0.081326    0.085357     0.14417     0.29835     0.45352
0.10106     0.51415     0.11144     0.18616     0.27011     0.20372     0.11821     0.20667     0.64763      0.1482       0.345    0.082588    0.085482      0.1455     0.29326      0.4453
0.10418     0.51955     0.11253     0.18603     0.27274      0.2055     0.11784     0.21583     0.65309     0.14993      0.3414    0.090643    0.086574      0.1434     0.29101     0.46443
0.1037      0.5347     0.11268     0.18742     0.27561     0.20868     0.12039     0.21313     0.65086     0.15018     0.32816    0.082775    0.086235     0.14674     0.29739     0.44437
0.10147     0.51858      0.1122     0.18924      0.2757     0.20899      0.1205     0.20677     0.66018      0.1492     0.34391    0.092601    0.086179     0.14755     0.30168     0.45039
0.10209     0.51555     0.11361     0.19202     0.27824      0.2104     0.12175     0.21202     0.66314     0.15181     0.34077    0.085745    0.087903     0.14709     0.29534     0.44308
0.10471      0.5214     0.11527       0.192     0.27603     0.20808     0.11989     0.22102     0.65515     0.14911      0.3424    0.087387    0.086648     0.14601     0.29863     0.46067
0.10197      0.5264     0.11449     0.18911     0.26998     0.20355     0.11696     0.21328      0.6554      0.1476     0.32184    0.084743    0.085752     0.14545      0.3047       0.447
0.10009     0.52061     0.11081      0.1855     0.27079     0.20339     0.11671     0.21618     0.66079     0.14825     0.32797    0.090843    0.084117      0.1455     0.28648     0.44573
0.10231     0.52462     0.11263     0.18738      0.2697     0.20372      0.1176     0.21672     0.66222     0.14718     0.32311      0.0828     0.08464     0.14404     0.28479     0.45498
0.1016     0.52647     0.11178     0.18738     0.27059     0.20494     0.11884     0.21583     0.66039      0.1477     0.32209    0.085673     0.08553      0.1447     0.30212     0.44378
0.10165     0.51439     0.11417     0.18844     0.27039     0.20532     0.11836     0.22032     0.67264     0.14774     0.32963     0.08817    0.085608     0.14643      0.2955     0.44832
0.10152      0.5327     0.11258     0.18909      0.2724     0.20692     0.12166     0.21763     0.66678     0.14994     0.33435    0.091866    0.088203     0.14525     0.30402     0.45899
0.10094     0.53083     0.11304     0.18866     0.27472     0.21045     0.12105     0.22939     0.66696     0.15113     0.33697    0.080974    0.086786     0.14708     0.30985     0.46892
0.10066     0.51282     0.11453     0.18998     0.27725     0.21041     0.12253     0.21728     0.66375     0.15161     0.34035    0.098173    0.087093     0.14735     0.31035     0.46371
0.10287     0.53441     0.11438     0.19046     0.27941     0.21244     0.12222     0.24283     0.67142     0.15226     0.34111    0.093665    0.088409     0.14778     0.31435     0.46849
0.10184      0.5141     0.11414     0.19122     0.27734      0.2084     0.11993     0.22479     0.66469     0.14953     0.34686    0.081009     0.08658     0.14579     0.29355      0.4516
0.10116      0.5278     0.11317     0.18725     0.27196     0.20576     0.11807     0.21532     0.67138     0.14887     0.31847    0.089208    0.086502      0.1451     0.30024      0.4566
0.10219     0.52714      0.1124     0.18788     0.26807     0.20268     0.11815     0.21142     0.65054     0.14898      0.3306     0.08066    0.084912      0.1443     0.30604     0.44163
0.10085      0.5119     0.11276     0.18577     0.27138     0.20528     0.11844     0.21602     0.65124     0.14866     0.32572    0.087514    0.085467      0.1439     0.28637     0.44874
0.099478     0.51179      0.1125     0.18738     0.27009     0.20448     0.11888     0.21431     0.66018     0.14674     0.33009    0.078158    0.085556     0.14444     0.29197     0.44992
0.10137     0.52655      0.1121      0.1878     0.26948     0.20577     0.11914     0.21978     0.65891     0.14797     0.34573    0.089167     0.08646     0.14613      0.3059      0.4508
0.10277     0.52099      0.1122      0.1888     0.27338     0.20626     0.12088     0.22351     0.66878     0.14829     0.35302    0.097277    0.085982      0.1466     0.29195     0.45568
0.10227     0.52605     0.11294     0.19145     0.27465     0.20846     0.12046      0.2128     0.65389     0.14999     0.33464    0.094772    0.085859     0.14642     0.29501     0.47356
0.10102      0.5156     0.11389     0.19059     0.27536     0.20978     0.12273     0.22609      0.6687     0.15024     0.33233    0.090964    0.088194      0.1471     0.30107     0.45987
0.10269     0.52127     0.11332     0.19197     0.27818     0.21227     0.12181     0.21283     0.66336     0.15076     0.33801    0.090168     0.08704     0.14811      0.3014     0.46536
0.10134      0.5294     0.11232     0.19029     0.27603     0.20772     0.12017     0.21275     0.66806     0.15014     0.33877    0.090187    0.086479     0.14868     0.30962     0.46512
0.10074      0.5228     0.11128     0.18762     0.27004     0.20436     0.11752      0.2229     0.65395     0.14968     0.33892    0.092185    0.086508     0.14463     0.29229     0.45092
0.10107      0.5172     0.11005      0.1853     0.26779     0.20337     0.11778     0.21536     0.65339     0.14848     0.32884    0.085046     0.08455     0.14441      0.2829     0.44702
0.10065     0.51889     0.11141     0.18516     0.26874     0.20455     0.11745     0.21214     0.66183     0.14802      0.3391    0.095488    0.084427     0.14394     0.30034     0.45201
0.10221     0.51592     0.11214     0.18655        0.27     0.20432     0.11842     0.20302     0.65727     0.14806     0.33738    0.092585    0.084157      0.1449     0.31639      0.4521
0.10084     0.51672     0.11078     0.18741     0.27108     0.20473     0.11849     0.20057     0.65316     0.14931     0.33568    0.084066    0.085767     0.14462      0.2943     0.45993
0.10093     0.52302     0.11108     0.18903     0.27406     0.20736     0.11996     0.21826     0.65802     0.14818      0.3431    0.092003    0.087186     0.14636      0.3091     0.46044
0.10293     0.52863     0.11432     0.18941     0.27567     0.20777      0.1208     0.22886     0.66459     0.15018     0.34572     0.10476    0.085788     0.14696     0.29733     0.45146
0.10321     0.51698     0.11295     0.18972     0.27513     0.20815      0.1221     0.21245     0.65431     0.14983     0.34706    0.081897      0.0879     0.14832     0.31039     0.44846
0.10234      0.5251     0.11155     0.19002     0.27813     0.20907     0.12219     0.23071     0.66023     0.15053     0.34271    0.095054    0.087718     0.14748     0.30754     0.45953
0.10297     0.52088     0.11257      0.1903      0.2784     0.20762     0.12273     0.21493     0.65114     0.14917     0.33479    0.084998    0.087095     0.14643     0.30375     0.46511
0.10327     0.51661     0.11264     0.18792     0.27088     0.20283     0.11782     0.22156     0.65143     0.14755     0.33474    0.083812    0.084709     0.14562      0.3105      0.4517
0.10276     0.51778     0.11102     0.18599     0.26993     0.20404     0.11762     0.21868     0.64565     0.14553      0.3281    0.086277    0.085391     0.14519     0.29938     0.45689
0.10047     0.51996     0.11114     0.18629     0.27007     0.20247     0.11514     0.20436     0.65556     0.14581      0.3318    0.079898    0.084484     0.14277     0.29543     0.45478
0.1003     0.51928     0.11086     0.18641     0.26979     0.20299     0.11811     0.21143     0.66629     0.14657     0.33474    0.080743    0.084799     0.14388      0.2959     0.44834
0.10188     0.53909     0.10917     0.18754     0.27047     0.20306     0.11804     0.20224     0.65168     0.14685     0.33254    0.097745    0.086361     0.14665     0.29589     0.45417
0.10417     0.54005     0.11138     0.18767     0.27204     0.20438     0.11944     0.22519     0.65964     0.14706     0.33321    0.069289    0.085599     0.14505     0.29014     0.44968
0.10009     0.52609     0.11339     0.18994     0.27168     0.20586     0.12119     0.22893     0.66144     0.14798     0.35413    0.093615    0.085836     0.14522     0.30209     0.46412
0.10129     0.53154     0.11268      0.1896      0.2734     0.20711     0.12089     0.22964     0.66305     0.14834      0.3448    0.086481    0.085917     0.14597     0.30239      0.4349
0.10177     0.53293     0.11396     0.19133     0.27521     0.21087     0.12086     0.21613     0.66296     0.14978     0.32888    0.096424    0.088815     0.14629     0.29421     0.44785
0.10046      0.5316     0.11473     0.18822     0.26982      0.2073     0.11764     0.21553     0.64902     0.14692     0.34697    0.075909    0.085125     0.14509     0.30724     0.44699
0.10311     0.52123     0.11045     0.18662      0.2688     0.20331     0.11849     0.21321     0.64734     0.14599     0.33295    0.077382    0.085263     0.14328      0.3021     0.43981
0.09991     0.51287     0.11125     0.18447     0.26758     0.20182     0.11657     0.20706     0.64151     0.14613     0.33711    0.097218    0.086678      0.1441     0.29738     0.44901
0.10045     0.52539     0.11135     0.18538     0.26941     0.20285     0.11823     0.20865     0.65191     0.14648     0.33145    0.096989    0.085827     0.14416     0.29842     0.45908
0.10239     0.52647     0.11143     0.18917     0.26894     0.20494     0.11936     0.21628     0.65056     0.14775     0.33044    0.084156    0.084512     0.14442     0.29901     0.44875
0.10124     0.53139     0.11198     0.18643     0.27079     0.20519     0.11745      0.2231     0.65237     0.14854     0.34525    0.090573    0.085722      0.1449     0.31862     0.44801
0.10119     0.51232     0.11189     0.18808     0.27299     0.20652     0.11949     0.22321     0.64845     0.14943     0.32549    0.076539    0.086499     0.14682     0.29645     0.47104
0.10219      0.5162     0.11312     0.18848     0.27429     0.20758     0.12212      0.2077     0.66371     0.14899     0.33346    0.085147    0.086161     0.14605     0.30163      0.4679
0.10465     0.52382     0.11353     0.18997     0.27533     0.20831     0.12145     0.22104     0.66283     0.14943     0.33904    0.073037    0.086463     0.14805     0.30125     0.44738
0.10431      0.5399     0.11373     0.19076     0.27774     0.20972      0.1222     0.22269     0.66686     0.14912     0.32194    0.088277    0.087604     0.14813      0.3033      0.4477
0.10098     0.53327     0.11374     0.19027       0.273     0.20617     0.11969     0.21713     0.66023     0.14977      0.3323    0.094336    0.084982     0.14698     0.30208     0.45111
0.10047     0.52362     0.11186     0.18695      0.2686      0.2028      0.1171     0.21252     0.66981     0.14652     0.32977    0.096943    0.086534     0.14428      0.2872     0.44507
0.10036     0.52246      0.1124     0.18574     0.26751     0.20136     0.11672     0.22212     0.66614      0.1469     0.33692    0.089064    0.085293     0.14379     0.30205     0.45191
0.10296     0.51362     0.11215     0.18428     0.26779     0.20276     0.11706     0.21047     0.65499     0.14762     0.34009     0.08358    0.086832     0.14554     0.29064     0.44548
0.10181     0.51737     0.11109     0.18624     0.26772      0.2029      0.1177     0.22345     0.66523     0.14692     0.32581    0.076973    0.085086     0.14588     0.29777     0.44688
0.10221     0.52203     0.11089     0.18745     0.27001     0.20367     0.11821     0.21579     0.65419     0.14779     0.33127    0.086613    0.083919     0.14463     0.29096     0.45241
0.1029     0.52662     0.11196     0.18956     0.27146     0.20621     0.11607     0.21613      0.6607     0.14858     0.32551    0.085805    0.085822     0.14529     0.29251     0.44653
0.10225     0.51584     0.11295     0.18764     0.27372     0.20653     0.11912     0.19857     0.66021     0.14941     0.34038    0.086602    0.085578      0.1465     0.29558     0.45767
0.1001     0.52983     0.11395     0.19013      0.2748     0.20822     0.12011     0.21581     0.67221      0.1497     0.32417    0.093243    0.085943     0.14594     0.29678     0.46304
0.098815     0.53112      0.1134     0.18888     0.27731     0.20851      0.1213      0.2157     0.67495     0.15162     0.34177     0.08626    0.087125     0.14881     0.30415     0.45465
0.10241     0.52957     0.11387     0.19117     0.27536     0.20755     0.12032     0.21751     0.66976     0.14959     0.32569    0.090539    0.086652     0.14684     0.30292     0.45143
0.1009     0.52953     0.11369     0.18704     0.26751     0.20241     0.11692      0.2138       0.659     0.14768     0.33061    0.082169    0.086158     0.14536     0.28294     0.44717
0.10138     0.51483     0.11195     0.18608     0.26681     0.20015     0.11489      0.2069     0.66464     0.14698     0.32052    0.085943    0.084119     0.14608      0.3109     0.44094
0.10135     0.51843     0.11201     0.18597     0.26716     0.20248     0.11625     0.21483     0.65564     0.14665      0.3359    0.073515    0.084039     0.14565     0.29721      0.4533
0.10151     0.50903     0.11202     0.18638     0.26872     0.20244     0.11734     0.22044     0.64457     0.14724     0.33914    0.081611    0.084785     0.14354     0.28655     0.43978
0.098712     0.51554     0.11085     0.18621     0.26903     0.20258     0.11713     0.21215     0.64952     0.14796     0.32432     0.10183    0.085151     0.14592     0.29371     0.45893
0.10061     0.51306     0.11151     0.18847     0.27168      0.2036     0.11875     0.21354     0.65232     0.14883     0.33223    0.091244    0.086432     0.14635     0.31232     0.44316
0.10225     0.52579     0.11367     0.19135     0.27303     0.20536     0.12003     0.21808     0.65838     0.15041     0.33799    0.096026    0.085332     0.14634     0.29401     0.44649
0.099664     0.52552     0.11183      0.1914     0.27481     0.20751     0.11874     0.22364     0.66966     0.14997     0.34274     0.09133    0.086828     0.14715     0.29325     0.47431
0.10133     0.52751     0.11245     0.19103     0.27522     0.20694     0.12113     0.22094     0.66392     0.15186     0.33057    0.084973     0.08549     0.14689     0.29235      0.4455
0.10394     0.53181     0.11362     0.19075     0.27512     0.20773     0.12093      0.2102     0.66415     0.15031     0.33633    0.085141    0.086386     0.14721     0.29685     0.46292
0.10105     0.51415       0.112     0.18828     0.27045     0.20206     0.11752      0.2208     0.64957     0.14577     0.33734    0.093259    0.083695     0.14517     0.29575     0.45829
0.099756     0.52418     0.11132      0.1858     0.26745     0.20211     0.11674     0.20378     0.65488     0.14691     0.31727    0.086227    0.084873     0.14431      0.3109     0.45302
0.10092     0.51956     0.11364     0.18587     0.26802     0.20092      0.1163     0.21468     0.64837     0.14815     0.32403     0.10304      0.0843     0.14412      0.2949     0.45009
0.098586     0.51627     0.11031     0.18663     0.26946      0.2015      0.1158     0.20989     0.66203      0.1476     0.33747    0.086443     0.08375     0.14452     0.30184     0.44773
0.1019      0.5159     0.11064     0.18698     0.26853     0.20223      0.1184     0.22175     0.66004     0.14815     0.33617    0.077807    0.083538     0.14648     0.30549     0.44458
0.10292     0.52306     0.11179     0.18883     0.27253     0.20294     0.11816     0.21357     0.66191     0.14958     0.33641    0.088165    0.085558     0.14636     0.29644     0.45012
0.10063     0.51925     0.11188     0.18915     0.27136     0.20543     0.12043     0.22486     0.66132     0.15149     0.33618    0.096832    0.085869     0.14697     0.30212     0.45496
0.10107     0.52268     0.11289     0.19048     0.27527     0.20771     0.12069     0.21536      0.6647      0.1508     0.33445    0.086024    0.086862     0.14583     0.30571     0.46009
0.10306      0.5435     0.11257     0.19177     0.27573     0.20789     0.12109     0.23511     0.65651     0.15092     0.33989     0.10233    0.088293     0.14622     0.30302     0.46751
0.101     0.52798     0.11392     0.19215     0.27624     0.20844     0.12086     0.20906     0.66361      0.1505      0.3342    0.096159    0.086399     0.14734     0.29492     0.45504
0.10234     0.53697     0.11348     0.18747     0.27041     0.20286     0.11699     0.21266     0.66248     0.14783     0.33724    0.081876    0.086135     0.14669     0.28536     0.45764
0.1026     0.51676     0.11196     0.18602     0.26913     0.20238     0.11853     0.21265     0.65018     0.14759      0.3257     0.09321    0.086007     0.14461     0.30383     0.44355
0.10092     0.52254     0.11112     0.18787     0.26919      0.2023      0.1175     0.20466     0.64577     0.14809     0.34299    0.085409    0.084889       0.144     0.29318     0.46649
0.097622     0.51718     0.11117     0.18651     0.26802     0.20151      0.1183     0.22012     0.64968     0.14787     0.32611    0.082538    0.085634     0.14532     0.28961     0.44161
0.10083     0.52575     0.11113     0.18689     0.27021     0.20352     0.11973     0.21531     0.65084     0.14857     0.33676    0.086614    0.086131     0.14386     0.29093     0.47053
0.1014     0.52805     0.11139     0.18921     0.27268     0.20447     0.11969     0.21585     0.65974     0.15062     0.33733    0.085917    0.086136     0.14551     0.30261     0.45344
0.096376     0.52299     0.11383      0.1887     0.27393      0.2066     0.11919     0.21628     0.66142     0.15032     0.34851    0.085662    0.086383     0.14569     0.30045     0.45351
0.10214     0.52064     0.11293     0.18987     0.27468     0.20692     0.12217     0.21451     0.66261     0.15011     0.33189    0.086556    0.086171     0.14601     0.29546     0.44101
0.10122     0.52425     0.11316     0.19103     0.27682     0.20868       0.121     0.22266     0.64774     0.14998      0.3282    0.087773    0.087958     0.14834     0.30776     0.47095
0.10187     0.53858     0.11323     0.19192     0.27946     0.20965     0.12267     0.21269     0.66351     0.15227      0.3434    0.092655      0.0877     0.14776     0.30149     0.46277
0.10248     0.53191      0.1128     0.18904     0.27176     0.20417     0.11786     0.22234     0.66447     0.14791     0.33255    0.085888    0.085354     0.14592     0.29528     0.45647
0.10082     0.53827     0.11165     0.18724     0.27074     0.20258     0.11757     0.20133     0.65178      0.1464     0.32564    0.093213    0.084688     0.14459     0.30861     0.46428
0.10161     0.51993     0.10997     0.18766     0.26964     0.20285     0.11672     0.22269     0.65603     0.14728     0.32566    0.089224    0.084901     0.14481     0.30846     0.44855
0.098573     0.51971     0.11065     0.18604     0.26818     0.20362     0.11705     0.20592     0.66377     0.14816     0.33312    0.091209    0.085879     0.14379     0.30021     0.44672
0.10103     0.52233     0.11088     0.18675     0.27061     0.20395     0.11794     0.20076     0.66114      0.1491     0.33737    0.082675    0.084633     0.14482     0.29279     0.46153
0.10178     0.53589     0.11142     0.18786     0.27174      0.2054     0.11901     0.22387     0.67688     0.14713     0.32831    0.086297    0.086435     0.14603     0.30096     0.45503
0.10178     0.52743     0.11153     0.18875     0.27339     0.20751     0.12057     0.22404     0.65619      0.1507     0.33143     0.07863    0.087741     0.14715     0.28393     0.45005
0.09957     0.52179     0.11418     0.19073     0.27667     0.20738     0.12011     0.21991     0.66814     0.14996     0.33943    0.094212     0.08577     0.14707     0.29186     0.46657
0.099499     0.53685     0.11327     0.19204     0.27479     0.20913     0.12193     0.21298     0.66129     0.15162     0.33288    0.087062    0.087767      0.1481     0.32084     0.45954
0.10096      0.5277     0.11325     0.19312     0.27793     0.20973      0.1218     0.21516     0.66738     0.15187     0.32786    0.093993    0.088308     0.14757     0.29586      0.4756
0.10187      0.5284      0.1146     0.19073     0.27621     0.20688     0.12001     0.20664     0.66688      0.1496     0.32748    0.084708    0.086884     0.14704     0.29478     0.46159
0.1012     0.50927     0.11295     0.18798     0.27035     0.20473      0.1183     0.21114     0.66003     0.14763     0.33563    0.094036    0.085806     0.14605     0.30354     0.45868
0.10215     0.52217     0.11061     0.18753     0.26863     0.20202     0.11684     0.22084     0.64599      0.1481     0.33957     0.10051    0.084357     0.14449     0.28872     0.44392
0.10279     0.53401     0.11185     0.18674     0.27047     0.20382     0.11697     0.21672     0.65792     0.14861     0.33715    0.090013    0.085904     0.14512     0.29203     0.45951
0.10084     0.51916     0.11128     0.18725     0.26962     0.20327      0.1181     0.21129     0.65158     0.14691     0.32633    0.083818      0.0864      0.1441     0.28719      0.4522
0.099743     0.52701     0.11254     0.18847     0.27462     0.20443     0.11787     0.21235     0.64922     0.14817     0.32777    0.097051    0.086615       0.146     0.29427     0.46171
0.10267     0.52228     0.11184     0.18759     0.27352     0.20569      0.1195     0.21274     0.65816     0.14977     0.33949    0.094869    0.085835     0.14719     0.30232     0.45266
0.10002     0.51996     0.11342      0.1894     0.27524     0.20742     0.12002     0.21187     0.65757     0.15021     0.32766     0.09194    0.087335     0.14794     0.28902     0.45426
0.10176     0.50429     0.11303     0.18967     0.27851     0.20723     0.12103     0.22202     0.66329      0.1524     0.34425     0.08159    0.086806     0.14787     0.30715     0.47388
0.10192     0.54428     0.11372     0.19129     0.27692     0.21027     0.12201     0.21651     0.66952     0.15202     0.33899     0.10271    0.086666     0.14829     0.29864     0.46277
0.10129     0.53344     0.11401     0.19098     0.28162     0.21264     0.12156     0.22642     0.65958     0.15179     0.34068    0.087277    0.088326     0.15081     0.30563     0.46255
0.1029     0.51725     0.11293     0.18827     0.27382     0.20619     0.11918     0.21882     0.65112     0.14836     0.33845    0.079799    0.086939     0.14588     0.28794     0.46034
0.098906       0.514     0.11203     0.18695     0.27169     0.20363     0.11705     0.20413     0.66129     0.14688      0.3389    0.078619    0.085298     0.14508     0.29091     0.44802
0.099579      0.5099     0.11152     0.18689     0.27044     0.20477     0.11687     0.19926      0.6409     0.14792     0.33909    0.088268    0.085022     0.14685     0.28918     0.45661
0.10153     0.51059     0.11012     0.18645      0.2713     0.20336     0.11752     0.20936     0.65677     0.14835     0.33672    0.094478    0.086866     0.14603      0.2979      0.4478
0.099811     0.50829     0.11123     0.18663     0.27079     0.20409     0.11762     0.20559     0.65122     0.15013     0.33163    0.076773     0.08679     0.14469     0.30699     0.45935
0.10038     0.51642     0.11052      0.1881     0.27383     0.20577     0.11866     0.22983     0.65522     0.14782     0.34107    0.086475    0.086696     0.14727     0.31673      0.4579
0.098928     0.52318     0.11156     0.18791      0.2756     0.20754     0.12029     0.22432     0.63817     0.14849     0.35452    0.087234    0.087158     0.14711     0.32218     0.45542
0.10139     0.52812     0.11437     0.19007     0.27537     0.20832     0.12206     0.22401     0.65719     0.15062     0.33935    0.080073    0.087077      0.1462     0.30073     0.45949
0.10071     0.52102     0.11372     0.19019     0.27787     0.20931     0.11969     0.22503     0.65315     0.14941     0.33978    0.079005     0.08909     0.14922     0.29788     0.45173
0.10431      0.5287     0.11372     0.19023     0.27851     0.21001      0.1226     0.21962     0.65983     0.15032     0.34324    0.077415    0.088778     0.14931     0.30127     0.45939
0.10058     0.52716     0.11389      0.1921     0.27892     0.20951     0.12033     0.22817     0.66934     0.14939     0.33692    0.086866    0.086809     0.14857     0.29555     0.47112
0.10342     0.51472     0.11074      0.1871     0.27304      0.2047     0.11836     0.20411     0.65681     0.14813     0.33591    0.083334    0.084874     0.14603     0.29505     0.44771
0.10104      0.5291     0.11198     0.18718     0.27183     0.20253     0.11753     0.21989     0.65826     0.14845     0.32169    0.080163    0.086368     0.14561     0.29169     0.45847
0.10036     0.50019     0.10984     0.18621     0.27178      0.2053     0.11745     0.20923     0.65296     0.14791      0.3279    0.087825    0.084801      0.1455     0.29358     0.44718
0.097504     0.51717     0.11011     0.18658     0.26941     0.20366      0.1176     0.21355     0.64366     0.14794     0.34536     0.07679    0.085771     0.14519     0.29607     0.45303
0.10041     0.51887     0.11227     0.18753     0.27194     0.20504     0.11818     0.21329     0.65179      0.1484     0.32538    0.088179    0.086234     0.14608     0.30068     0.45706
0.098848     0.52123     0.11034     0.18674     0.27413     0.20749     0.11794      0.2237      0.6502     0.14886     0.34661    0.080296    0.086194     0.14554     0.31311     0.46402
0.096527     0.52987      0.1124     0.18711     0.27602     0.20848     0.12077     0.20409     0.65117     0.15051     0.32758    0.094962    0.087204     0.14785     0.29896     0.46862
0.10192     0.52135     0.11114     0.19009     0.27676     0.21064      0.1225     0.22098     0.65803     0.14986     0.33682    0.089726    0.087705     0.14678     0.30972     0.45197
0.1013     0.52022     0.11272     0.19226     0.28165     0.21138     0.12259     0.21633     0.66759     0.15215     0.34413    0.069922    0.086406     0.14785     0.30808     0.45716
0.10227     0.52091     0.11433     0.19198     0.28288      0.2141     0.12247     0.21234     0.66265     0.15328     0.35534    0.087067    0.087698     0.14883     0.30914     0.46725
0.10248     0.52767     0.11321     0.19136     0.27969     0.21122     0.12033      0.2212     0.66188     0.14954     0.34202    0.095703    0.086627     0.14648     0.29199     0.46122
0.10166     0.52643     0.11215     0.18947     0.27458     0.20828     0.11886     0.21497     0.65384      0.1509     0.33925    0.089942    0.087254     0.14717     0.29948     0.45111
0.099766     0.51655      0.1117     0.18812     0.27583     0.20687     0.11855     0.21602     0.65864     0.15068      0.3312      0.0854    0.085162     0.14652     0.28853     0.45782
0.10237     0.50651     0.11231     0.18932     0.27508     0.20759     0.11989     0.21643     0.64794     0.15074     0.33833    0.092884    0.085426     0.14517     0.29923     0.44946
0.10171     0.50326     0.11287      0.1881      0.2761     0.20817     0.11997     0.23836      0.6605     0.15046     0.33415    0.075841    0.086216     0.14713     0.30217     0.45137
0.10093      0.5214     0.11011     0.18989     0.27702      0.2098     0.11956     0.21949     0.65536     0.15039     0.33849     0.08375    0.085318     0.14687     0.28915     0.44661
0.099807     0.50839     0.11154     0.19131     0.27888     0.21015     0.12157     0.22204     0.65634     0.15239     0.33768    0.081518     0.08658     0.14731     0.30407     0.45353
0.10155     0.51833     0.11308     0.19092     0.28053     0.21183     0.12303     0.21662      0.6569     0.15245      0.3463    0.090468    0.086749     0.14689     0.30291      0.4624
0.10187     0.52702      0.1121      0.1917     0.28218     0.21492     0.12302     0.22207     0.66874     0.15454     0.34983    0.088846     0.08828     0.14907     0.31348     0.46295
0.10435      0.5202       0.114     0.19286     0.28505     0.21608     0.12431     0.22494     0.66589     0.15313     0.35572     0.09349    0.088229      0.1491     0.30215     0.46558
0.102     0.52705     0.11299     0.19253     0.28313     0.21353     0.12223     0.21558      0.6566     0.15234     0.34593    0.090679    0.086299     0.14705     0.30059     0.46412
0.099704     0.52911       0.112     0.18731     0.27779     0.20887     0.11952      0.2295     0.65274       0.149     0.32762    0.087605    0.086801     0.14492      0.3017     0.46535
0.10103     0.52006     0.11102     0.18692     0.27539     0.20844     0.11908     0.21632      0.6461     0.14941     0.33682     0.07388    0.086272     0.14636     0.30353     0.45503
0.10324     0.51427     0.11023     0.18706     0.27724     0.20835     0.11942     0.19821     0.64164     0.14998     0.33512    0.081412    0.086589      0.1448     0.29348     0.45632
0.099432     0.51322     0.11243     0.18768     0.27701      0.2081     0.12042     0.22478     0.65692     0.15041     0.33786    0.091257    0.085737     0.14613     0.30448     0.45381
0.10152     0.52007      0.1114     0.18809     0.27657     0.20881     0.11987     0.21895     0.65685     0.14969     0.34122    0.088149    0.086408     0.14661     0.30363     0.47474
0.10039     0.50018     0.11066     0.18842     0.27913     0.21028     0.12036     0.22735     0.65122     0.15143     0.34542    0.094389    0.087334     0.14735     0.29257      0.4694
0.10107     0.51003     0.11142     0.19152     0.28136     0.21176     0.12186     0.21837       0.663     0.15079     0.33565    0.085643     0.08656     0.14812     0.29763     0.46327
0.10164      0.5185     0.11161     0.18961     0.28252     0.21302     0.12213     0.22905     0.65751     0.15279     0.33898    0.084544    0.088604      0.1469     0.29481     0.45961
0.10112     0.51741     0.11188     0.19065     0.28325     0.21328     0.12354     0.22515      0.6602     0.15196      0.3497    0.080828    0.088471     0.14955     0.30049     0.46872
0.10179     0.51825     0.11275     0.19176     0.28333     0.21519     0.12427     0.22257     0.65961      0.1533     0.34786    0.095729    0.087547     0.14946     0.31549     0.45977
0.10267     0.52286     0.11249     0.18685     0.27843     0.20882      0.1203     0.21109     0.65628     0.14794     0.33459    0.092878    0.087004     0.14714     0.30336     0.46554
0.098785     0.51385     0.11135       0.186     0.27415     0.20481     0.11924     0.22057     0.65721     0.14874     0.32499    0.079075    0.086139     0.14592     0.28692     0.45638
0.10151     0.50074     0.11124     0.18439     0.27486     0.20592     0.11786     0.22194     0.64848     0.14708     0.32605    0.093264    0.085584     0.14576     0.29924     0.43807
0.099888     0.50573      0.1099       0.185     0.27377     0.20547     0.11974     0.21297     0.64767     0.14875      0.3247     0.08737    0.084588     0.14624     0.27497     0.45734
0.10119     0.50531     0.11127     0.18599     0.27597     0.20659     0.11926     0.20946     0.66329      0.1496     0.33025    0.096137    0.085569     0.14587     0.29209     0.45875
0.10076     0.52361     0.11067     0.18746     0.27662     0.20821     0.12007     0.21523       0.657     0.14952     0.34468    0.087127    0.085797     0.14721     0.29149     0.46102
0.099634     0.51814     0.11187     0.18848     0.27882     0.21004     0.12197     0.20947     0.64954        0.15     0.33415    0.091217    0.086588     0.14663     0.30272     0.45997
0.10091     0.52572     0.11232     0.18808     0.28025     0.21109     0.12104     0.21599     0.67206     0.15157     0.32405    0.089839     0.08717     0.14704     0.29143     0.46137
0.10323     0.50686     0.11163     0.18949     0.28197      0.2103     0.12171     0.23025     0.67336     0.15141     0.33508    0.087093    0.086022     0.14751     0.29722      0.4688
0.10043     0.51284     0.11267      0.1887     0.28283     0.21325       0.124      0.2263     0.65963     0.15083     0.34633    0.078581    0.088219     0.14783     0.31422     0.46931
0.10444     0.52233     0.11432     0.19053     0.28073      0.2114     0.12191     0.22376     0.64277     0.14943     0.34862    0.091885    0.085408     0.14662     0.30469     0.46218
0.10056     0.52311     0.11257      0.1878      0.2752     0.20598      0.1198     0.21488     0.66528     0.14707     0.33315    0.091355    0.085343     0.14595     0.29566     0.45227
0.098946     0.51586     0.10981     0.18548     0.27362     0.20475     0.11708     0.21234     0.66618     0.14773     0.33059    0.085378     0.08395     0.14532     0.30395     0.45765
0.1003     0.51336     0.11116     0.18528     0.27441     0.20555     0.11821     0.20481     0.64861     0.14853     0.32709     0.10442    0.084762     0.14569     0.29692     0.45107
0.09973     0.52312     0.11018     0.18449     0.27399     0.20542     0.11936      0.2125     0.65922     0.14711     0.33145    0.079894    0.085543     0.14662     0.29419     0.44889
0.099249     0.51857     0.11104     0.18605     0.27453     0.20759     0.11796     0.22281     0.66832     0.15001     0.34483    0.075095    0.085464     0.14626     0.29235     0.45751
0.1024     0.52216     0.11161     0.18783      0.2785     0.20756      0.1213     0.21785     0.64071      0.1479     0.32497     0.09481    0.086153     0.14685      0.2915     0.46338
0.098854     0.52595     0.11189     0.18874     0.27943     0.20864      0.1215     0.21222     0.63728     0.14883     0.35035    0.066199    0.087876     0.14617     0.29333      0.4608
0.098158      0.5213     0.11171     0.18946     0.28101     0.21032     0.12228     0.23258     0.64884     0.15064     0.34548    0.094341    0.087787     0.14786     0.30815     0.46298
0.098406     0.51137     0.11316     0.18917     0.28352     0.21186     0.12369     0.21893     0.66973     0.15127     0.34705    0.081185    0.086713     0.14877       0.305     0.47093
0.10105     0.52458     0.11423     0.19133     0.28444      0.2137      0.1236     0.22575     0.67686     0.15086     0.35009    0.098313    0.087999     0.14779     0.29098     0.45339
0.10144     0.51658     0.11139     0.18891     0.27746     0.20897     0.12029     0.21056     0.66318     0.14905     0.33568     0.10264     0.08697     0.14835     0.30107     0.45946
0.10276     0.52665     0.11152     0.18599     0.27592     0.20621     0.11877     0.21781     0.64929     0.14714     0.32683    0.079691    0.085114     0.14624     0.29291       0.458
0.10057      0.5284     0.11093     0.18641     0.27413     0.20332     0.11914     0.21308     0.65288     0.14612     0.33904    0.090263     0.08602     0.14384     0.28278      0.4434
0.09864     0.50534     0.11224     0.18522     0.27378     0.20518     0.11946     0.21234     0.63684     0.14773     0.34549    0.086534      0.0858     0.14604     0.30166     0.46013
0.1006      0.5067     0.11292      0.1864     0.27616     0.20514     0.11916     0.22563     0.66052     0.14765     0.33852    0.083482    0.085205     0.14573     0.28811     0.46099
0.1016     0.51751     0.11106     0.18611     0.27753     0.20619        0.12     0.22381     0.64812     0.14848      0.3391    0.088608    0.086916     0.14684     0.28265     0.45626
0.10036     0.52029     0.11072     0.18699     0.27929     0.20801     0.12005     0.20858     0.65468     0.14746     0.33853    0.080987    0.086993     0.14672     0.29669     0.45735
0.10186     0.50779     0.11169     0.18689     0.28035      0.2101       0.122     0.21678     0.65747     0.14941     0.32853    0.088371    0.085862      0.1477     0.31483     0.45968
0.10187     0.52473     0.11236     0.18948      0.2824     0.21068     0.12209     0.20792     0.66567     0.15128     0.34779    0.094828    0.087022     0.14907     0.29087      0.4592
0.10186       0.529     0.11358     0.19071     0.28326     0.21024     0.12342     0.22265     0.64477     0.15066     0.34081    0.090806    0.087643      0.1492     0.30427     0.46444
0.10205     0.53036     0.11388     0.18979       0.281     0.21186     0.12291     0.21697     0.66031     0.14923     0.35117    0.098915    0.086665     0.14884     0.30112     0.46165
0.10013       0.513     0.11147      0.1871     0.27662     0.20719     0.11988     0.22118     0.65127      0.1484     0.32972    0.092482    0.087125      0.1456     0.30148     0.44601
0.10147     0.51657     0.11141     0.18539     0.27686     0.20497     0.11949     0.21852     0.65381     0.14723     0.34719    0.095657    0.086488     0.14562     0.29041      0.4519
0.10162     0.51809     0.11174     0.18702     0.27609     0.20637     0.12001     0.20685     0.65342     0.14856     0.33354    0.099199    0.087518     0.14553     0.30273     0.43871
0.10137     0.51041     0.11114     0.18506     0.27673     0.20761     0.11954     0.22172      0.6631     0.14755     0.33858    0.090186    0.087459     0.14567      0.2984     0.43819
0.09973     0.52166     0.11239     0.18657     0.27785     0.20892     0.12129      0.2223      0.6546     0.14926      0.3403    0.089991    0.087249      0.1471     0.29535     0.45541
0.10224     0.53062     0.11296     0.18918     0.28171      0.2093     0.12118     0.21856     0.65151     0.15009     0.32555    0.092413    0.086916     0.14846     0.29277     0.45398
0.10051     0.50826     0.11302      0.1882     0.28172      0.2116     0.12353     0.22501     0.66458     0.15248     0.33045    0.080007    0.087374     0.14749     0.29419     0.44798
0.10116     0.51857     0.11425     0.19037     0.28283     0.21294     0.12334     0.23487     0.65587     0.15075     0.32967    0.087826    0.088824      0.1491     0.31152     0.47364
0.10023     0.52746     0.11458     0.18984     0.28415     0.21312     0.12371     0.18064     0.66708     0.15003     0.33658    0.077025    0.088506     0.15001     0.30752     0.46515
0.10359     0.52983     0.11426     0.19019     0.28593      0.2137     0.12552     0.22587     0.67416     0.15172     0.33984    0.090492    0.088514     0.14902     0.29863     0.46651
0.10337     0.52189     0.11204     0.18915     0.27918     0.20807     0.12245     0.21525      0.6656     0.14828     0.34455     0.09295    0.087195     0.14803     0.29843     0.45697
0.10171     0.51749     0.11157     0.18706     0.27812     0.20598     0.12064     0.22427     0.64774     0.14681     0.34528      0.0898    0.086157     0.14848     0.29834     0.45671
0.10101     0.51468     0.11176     0.18511     0.27975     0.20652     0.12026     0.20736     0.65053     0.14759     0.32817    0.085101     0.08633     0.14675      0.2838     0.45545
0.10051     0.52688     0.11153       0.187     0.27981     0.20836     0.12093     0.21118     0.66645     0.14716     0.32615    0.090794    0.087529     0.14616     0.29632     0.46639
0.1022     0.52419     0.11135     0.18699     0.27998     0.20805     0.12119     0.22356     0.65684     0.14917     0.33338    0.087174    0.085705      0.1483     0.30315     0.46557
0.101     0.52319     0.11285     0.18724     0.28174      0.2084     0.12177     0.21748     0.65215      0.1482     0.33033    0.085343    0.087484     0.14849     0.30176     0.44874
0.10034      0.5172       0.113      0.1886     0.28298     0.21049      0.1244     0.22782     0.65453     0.14924     0.33645    0.081245    0.087961     0.14868     0.30659     0.45713
0.10058     0.53001     0.11208     0.18942     0.28503     0.21333     0.12418     0.21472     0.66545     0.15048     0.34143    0.090157    0.088934     0.14807     0.31047     0.46784
0.10117     0.51889     0.11411     0.19012     0.28616     0.21453     0.12402      0.2231      0.6733     0.15121      0.3292    0.090705    0.088886     0.14916     0.30244     0.47285
0.10265     0.53638     0.11414      0.1917     0.28678     0.21363     0.12502     0.22266     0.65053     0.15259     0.34976    0.093001    0.089702     0.15068     0.31285     0.48521
0.099162     0.51651     0.11209     0.18896     0.28405     0.21075     0.12342     0.22521     0.65048     0.14855     0.33944    0.084127    0.087577     0.14903     0.29372     0.45773
0.10205     0.52048     0.11478     0.18686     0.28086     0.20768      0.1206     0.21464     0.65142     0.14683     0.34851    0.084658    0.086405      0.1475     0.31446     0.45732
0.10262     0.52157     0.11292     0.18526     0.27922     0.20671     0.11945     0.22456     0.64769     0.14581     0.34553    0.089315    0.086482     0.14809     0.30484     0.45867
0.10264     0.51597      0.1117     0.18641     0.27959     0.20706     0.12206     0.21109     0.65365     0.14933     0.32495    0.091952    0.085877     0.14604     0.29239     0.45594
0.10178     0.50545     0.11147     0.18625     0.27811     0.20733     0.11982     0.21746     0.65144     0.14783     0.34363    0.088369    0.087584     0.14761     0.28398     0.45693
0.10059     0.50809     0.11132     0.18641     0.28124     0.20965     0.12174     0.22294     0.65968      0.1488     0.33526    0.089344    0.087204     0.14813     0.29305     0.45901
0.10187     0.50872     0.11287     0.18846       0.283     0.21016      0.1229     0.21805     0.66184      0.1503     0.31937    0.085748    0.088598     0.14858        0.31     0.45398
0.10171     0.51977     0.11226     0.18758     0.28379     0.21257     0.12458     0.23032     0.66452     0.15066     0.33901     0.10385    0.087726     0.14999     0.30455     0.45742
0.10066     0.50711     0.11421     0.18907     0.28502     0.21269     0.12452     0.22112     0.65966     0.15001      0.3395    0.096487    0.087438     0.14911     0.31488     0.46179
0.099924     0.52587     0.11278     0.19026     0.28785     0.21571     0.12601     0.22435     0.65704     0.15225     0.34293     0.07745     0.08984     0.14979     0.31718     0.46028
0.103     0.52435     0.11329     0.19023     0.28699     0.21118     0.12412     0.23872     0.67988     0.15066     0.34371    0.086704    0.086687     0.14892     0.29791     0.45788
0.099208     0.52097     0.11149     0.18566     0.28103     0.20745     0.12021     0.21519     0.66042      0.1483     0.34549    0.092396    0.086172     0.14709     0.29631     0.45722
0.10078     0.51674      0.1126     0.18526     0.27789     0.20531     0.11996     0.20804      0.6627     0.14897      0.3292    0.076287    0.085487     0.14601     0.28263     0.45327
0.10257     0.51194     0.11242     0.18368     0.27908      0.2078     0.12157     0.22042     0.64587      0.1484     0.31905     0.08536    0.086541     0.14635     0.30463     0.44984
0.10076     0.49651     0.11178     0.18535      0.2789     0.20681     0.12068     0.22413     0.65702     0.14791     0.32602    0.098497    0.085206     0.14661     0.29552     0.44466
0.10222     0.51501     0.11178     0.18718     0.28123     0.20908     0.12196     0.21231     0.65924     0.14742     0.33796    0.078935     0.08738      0.1466     0.29956     0.46081
0.10052     0.52742     0.11186     0.18734     0.28242     0.21017     0.12305     0.22144     0.65886     0.14773      0.3404    0.082833    0.086636     0.14761     0.30527     0.45931
0.10101     0.52444     0.11239     0.18741     0.28486     0.21025     0.12511     0.22039      0.6479     0.14948     0.34372    0.074775     0.08811     0.14717     0.30734     0.46488
0.10351     0.52276     0.11264     0.18885     0.28462     0.21081     0.12421      0.2189     0.65446     0.14983     0.33702    0.086897     0.08602     0.14938     0.29677     0.46318
0.10253     0.52812     0.11342     0.18962     0.28671      0.2131     0.12425     0.22621     0.67124     0.15017     0.35169     0.09682    0.087588     0.15035     0.30898     0.46359
0.10709     0.50905     0.11491     0.19125     0.28766     0.21487     0.12734      0.2266     0.66161     0.15154     0.34843    0.083226     0.08802     0.15008     0.30465     0.47025
0.098526     0.52985     0.11273     0.18887     0.28293     0.21122     0.12272     0.23465     0.66891     0.14724     0.32979    0.092491    0.087196     0.14733     0.29594     0.46716
0.10234     0.51131     0.11425     0.18498     0.28063     0.20696     0.12043     0.22985     0.66719     0.14596     0.32976     0.08926    0.085593     0.14705     0.30576     0.45548
0.10068     0.52229     0.11174     0.18529     0.27699     0.20516     0.11907     0.22355     0.66228     0.14637     0.34783    0.086665    0.085372     0.14642     0.30983     0.46724
0.099041     0.51841     0.10918     0.18517     0.27947     0.20647     0.12029     0.22546     0.64592     0.14565     0.34908    0.084784     0.08538     0.14567     0.29733     0.44529
0.099214     0.50407     0.11119     0.18718      0.2811     0.20647     0.11955      0.2167     0.65709     0.14759     0.33401    0.088126    0.086064     0.14807      0.2905     0.46825
0.10187     0.52172     0.11186     0.18684     0.28075     0.20956     0.12358     0.21833     0.65594     0.14844     0.33292     0.08593    0.088303     0.14716     0.29795     0.45665
0.10325     0.52677     0.11242     0.18739      0.2842     0.20927     0.12388     0.22214      0.6556     0.14771     0.33973    0.083687    0.087576      0.1478     0.30021     0.45307
0.10407     0.53575     0.11344     0.19026     0.28538     0.21068     0.12379     0.21839     0.66815     0.14874     0.34496    0.080594    0.086731     0.14905     0.30862     0.45417
0.10232     0.52314     0.11429     0.18901     0.28578     0.21203     0.12484     0.23614     0.65316     0.14898     0.32964    0.085825    0.087928     0.15037     0.30557     0.46764
0.10221     0.52094     0.11453     0.19032     0.28744     0.21215     0.12486     0.20971     0.66386     0.15018     0.33503     0.07753    0.088765     0.15142     0.30519     0.47179
0.10434     0.52558     0.11495     0.19082     0.28525     0.21196     0.12345     0.21469     0.65537     0.14808     0.33383    0.079806    0.088251     0.14954     0.31016     0.46127
0.10339     0.51353     0.11244     0.18779     0.28035     0.20702     0.12075     0.22483     0.66156     0.14723     0.32998    0.082586    0.087391     0.14891     0.29648     0.46231
0.09981     0.50613      0.1121     0.18524      0.2785     0.20659     0.11957     0.22977     0.64807     0.14497     0.33553     0.09946    0.085282     0.14665     0.28732     0.45989
0.10298     0.50791      0.1116     0.18668     0.27917     0.20782     0.12087     0.21102     0.64559     0.14677     0.33832    0.085352    0.086185      0.1474     0.30454     0.44759
0.099952     0.51092     0.11144     0.18568     0.27958     0.20653     0.12184     0.21364     0.64452     0.14801     0.33279    0.095048     0.08555     0.14667     0.30031     0.44542
0.10098     0.52697     0.11235     0.18638     0.27882     0.20649     0.12347     0.21743     0.65685     0.14658     0.33453    0.093958    0.087799     0.14635     0.29835     0.47352
0.10454     0.52635     0.11193     0.18696     0.28383     0.20928      0.1243     0.22567     0.66898     0.14948     0.34825    0.089561    0.087903     0.14828     0.30281     0.46049
0.10077     0.53354     0.11492     0.18865     0.28385     0.21177     0.12424     0.20947     0.66541     0.14888     0.34328    0.075671    0.087187     0.14928     0.30308     0.47137
0.10205     0.52519     0.11314     0.18723      0.2854     0.21101     0.12497     0.22798     0.65573     0.14907     0.33803     0.09305    0.087355     0.14997     0.30442     0.47132
0.10028     0.52192     0.11466     0.18992     0.28734     0.21297     0.12617     0.22542     0.65544     0.15144     0.35014     0.09564    0.088154     0.14937     0.29259     0.47712
0.10168     0.51954      0.1145     0.19035     0.28478     0.21024     0.12417     0.22189     0.66055      0.1471     0.34601    0.096528    0.087037     0.14938     0.30861     0.45956
0.10334      0.5197     0.11318     0.18673     0.27973     0.20691     0.12202     0.21418      0.6544     0.14842      0.3232    0.079143    0.086505     0.14623     0.29438     0.45715
0.099265     0.51918     0.11127     0.18457      0.2782     0.20639     0.12148     0.22721     0.65336     0.14677     0.32926     0.09495    0.087417     0.14692     0.28852     0.45178
0.1018     0.52695     0.11226     0.18505     0.27864     0.20717      0.1223     0.21831      0.6589     0.14743     0.33506    0.095126    0.086888     0.14646     0.30082     0.45818
0.10243     0.51166     0.11093     0.18498     0.27948     0.20813     0.12212     0.21703     0.64998     0.14731     0.34011    0.082749    0.085707     0.14736       0.302     0.47311
0.10079     0.51926     0.11118     0.18713     0.28074     0.20978     0.12169     0.22319     0.66151     0.14817     0.33449    0.096637    0.087389     0.14861     0.28897     0.45914
0.099931     0.52345       0.114     0.18784     0.28401     0.20925     0.12335     0.23044     0.65641     0.14887     0.34599    0.095746    0.088001     0.14793     0.30292      0.4633
0.10002      0.5241     0.11349     0.18896     0.28313     0.20976     0.12244     0.22933     0.65449     0.14983     0.33078    0.099508    0.088209     0.14856     0.30058     0.46136
0.10061     0.51702     0.11432     0.18896     0.28494     0.21299     0.12599     0.22326      0.6648     0.14944     0.33753    0.078157    0.089052      0.1502     0.30715     0.45914
0.10073     0.52515     0.11433     0.19166     0.28674     0.21294      0.1244      0.2306     0.66742     0.15074     0.34401    0.089821     0.08847     0.15071     0.31009     0.46907
0.10502     0.51706     0.11236     0.19059     0.28285     0.20963     0.12377     0.23333      0.6533     0.14762     0.33707    0.088763    0.087188      0.1479     0.29003     0.45898
0.09893     0.53494     0.11223     0.18568     0.27888     0.20593     0.12061     0.20149     0.65188     0.14615     0.33896    0.079502    0.086932     0.14718     0.29713     0.46024
0.10145     0.51746     0.11142     0.18662     0.27779     0.20596     0.11966     0.22209     0.66205     0.14709     0.32602    0.081801    0.086119     0.14774     0.28768     0.45258
0.098319     0.52614      0.1129     0.18657     0.27793     0.20629     0.12298     0.22495     0.64833     0.14785     0.33288    0.096694    0.086176     0.14699      0.2957     0.45055
0.098551     0.51174     0.11274      0.1855     0.27834     0.20792       0.122     0.23686     0.65706     0.14771     0.34165    0.089107    0.085065     0.14729     0.31351     0.45596
0.10009     0.51119       0.112     0.18585     0.28066     0.20856     0.12123     0.22254     0.66336     0.14713      0.3407    0.088076    0.086768     0.14843     0.31007     0.45776
0.10271     0.51995     0.11135     0.18652     0.28187     0.20969      0.1232     0.21468     0.65026      0.1485     0.33409    0.082958    0.088398     0.14885      0.2949     0.45279
0.10237     0.53028     0.11437     0.18837     0.28391      0.2108      0.1236     0.21924      0.6492     0.14994      0.3338    0.092768    0.088547     0.14898     0.29362     0.45977
