0.18026     0.86303     0.19404     0.25632     0.26492      0.1775     0.15794     0.25713     0.97396     0.23123     0.39388    0.098138    0.085133     0.18411     0.41477     0.57459
0.17993     0.87301     0.19481     0.26006     0.26672     0.17939     0.16043     0.25358     0.98779     0.23241     0.41743     0.10621    0.087112     0.18478     0.40976     0.58568
0.18143      0.8733     0.19693     0.26179     0.27023     0.18257     0.16345     0.24775     0.97402     0.23487     0.40689     0.10857    0.087026     0.18591      0.4228     0.57717
0.17819     0.86511     0.19605     0.25773     0.26182     0.17733     0.15712     0.24241     0.97196     0.22724     0.40545     0.10494    0.086522     0.18124     0.40728     0.57128
0.17576     0.84481     0.19275     0.25184     0.25598     0.17094      0.1524     0.24756     0.95871     0.22398      0.4038     0.10257    0.083109     0.18127     0.39972     0.57124
0.17541     0.85521     0.19194     0.24979     0.25248     0.17252     0.15224     0.24376     0.95148     0.22289     0.39277     0.10441    0.083992     0.18026     0.40349     0.56216
0.17486     0.85802     0.19012     0.25082     0.25455     0.17213     0.15376     0.24759     0.95125      0.2264     0.40931     0.09037    0.084738     0.17967     0.41125      0.5699
0.17529     0.83558     0.19043      0.2525      0.2548      0.1742     0.15451     0.23794      0.9601     0.22647     0.40515    0.093898    0.086334     0.17957     0.40615     0.57261
0.17567       0.852     0.19303     0.25234     0.25761     0.17489      0.1559     0.23018     0.96653     0.22701      0.3982     0.10141    0.084249     0.18102      0.4243     0.57469
0.17607     0.86914      0.1942     0.25476     0.26129     0.17837     0.15853     0.24999     0.96773     0.23018     0.39629     0.10444     0.08754     0.18184     0.39857     0.58308
0.17856     0.86972     0.19492     0.25818     0.26327     0.18147     0.16225        0.26     0.97081     0.22983     0.41002    0.098078    0.088217     0.18727     0.41206     0.58485
0.18145     0.86649     0.19712     0.26112     0.26376     0.18558     0.16859     0.25805     0.96293     0.22422     0.42026     0.10936     0.09069     0.18913      0.4369      0.6087
0.17685     0.86477     0.19554     0.24313     0.25322     0.18263     0.15618     0.26742     0.95303     0.20889     0.40377     0.10546    0.091322     0.17937     0.42242      0.6235
0.17158     0.84401     0.19211     0.23556     0.25171     0.18354     0.15525     0.26244     0.94629      0.2024     0.39573     0.10097    0.092925     0.17539     0.41866     0.59878
0.17331     0.85146      0.1906     0.23483     0.24985     0.18322     0.15465     0.26702      0.9578     0.20336       0.408    0.083652    0.092113     0.17711     0.42947     0.61261
0.17393     0.85148     0.19095     0.23618     0.25088     0.18282     0.15608     0.26894     0.95672     0.20213     0.40897    0.085193    0.091289     0.17722      0.4389     0.61528
0.17472     0.86009      0.1927     0.23922     0.25022       0.182       0.154     0.27943     0.96231     0.20113     0.40533    0.090965    0.092792     0.17692      0.4171     0.60483
0.17597     0.86832     0.19681     0.23631     0.25313     0.18832     0.15822     0.28563       0.942     0.20022      0.4176     0.10128     0.09446     0.17797     0.44129     0.60036
0.17648     0.86851     0.19722     0.23713     0.25627     0.19215     0.15988     0.28453     0.95777     0.19844     0.41168     0.10383    0.096176     0.17886     0.44935     0.60658
0.17911     0.87499     0.19828      0.2378     0.25931     0.19703      0.1625     0.29163     0.97719     0.20126     0.41758    0.096362    0.096952     0.17898     0.44854     0.63265
0.17925     0.87721     0.19897     0.24272     0.26396     0.19755      0.1662     0.31678     0.97072     0.20463     0.40044     0.10478    0.098276     0.17986     0.45905     0.62619
0.17812     0.87845     0.19977     0.24046     0.25676     0.19126     0.16171      0.2936      0.9556     0.20091     0.39997    0.088582    0.095108     0.17611     0.43723     0.61979
0.17496     0.85751     0.19557     0.23622     0.25377     0.18838     0.15461     0.28855     0.94696     0.19933     0.39154    0.092445    0.093419      0.1749     0.43365     0.62223
0.17561     0.86152     0.19342     0.23471     0.25095     0.18761     0.15587     0.26607     0.96035     0.19837     0.40614    0.096845    0.093072     0.17563     0.44269     0.61074
0.17452      0.8542     0.19234     0.23647       0.253     0.18792     0.15766     0.29575     0.94938     0.20326     0.39208    0.094032     0.09415     0.17584     0.42984     0.60397
0.17399     0.85921     0.19426     0.23876     0.25116     0.18646     0.15502     0.28849     0.95406     0.20233     0.40231    0.094632    0.094453     0.17676     0.43967     0.60943
0.17266      0.8556     0.19534     0.23863     0.25321     0.18947     0.15839     0.28592     0.95845     0.20389     0.40365    0.099844    0.093506     0.17931      0.4249     0.59726
0.17824     0.86386     0.19653     0.24095     0.25453     0.19198     0.16022     0.29681     0.96569     0.20584     0.40147    0.097953    0.094647     0.17963     0.42802     0.62176
0.17681      0.8813     0.19844     0.24434     0.25619     0.19344     0.16078     0.29885     0.97539     0.20726     0.42142     0.10379    0.095114     0.18178     0.44291     0.61287
0.17969     0.88511     0.19807     0.24646     0.25906     0.19476      0.1631     0.28841      0.9804     0.20853     0.41682     0.11868    0.095451     0.18333      0.4577     0.62159
0.1819     0.87846     0.20021     0.24676        0.26     0.19523     0.16392     0.30457     0.99472     0.21027     0.41354     0.11173    0.094807     0.18122     0.43431     0.61321
0.17927     0.87636     0.19453     0.24106     0.25031     0.18828     0.15792     0.28369     0.96842     0.20309     0.41191     0.11025    0.093387     0.17916     0.42708     0.59107
0.17694     0.86406     0.19463      0.2374     0.24561     0.18577     0.15292      0.2813     0.96519     0.20196     0.39602    0.090968    0.093009      0.1767     0.42168     0.60219
0.17603     0.86136      0.1938     0.23775     0.24589     0.18335     0.15412     0.27992     0.95846     0.20024     0.41636     0.10591    0.092524     0.17799     0.41676     0.61376
0.17194     0.87048     0.19258     0.23866     0.24565     0.18516     0.15386     0.28269     0.97133     0.20331     0.40887    0.092061    0.092989     0.17847     0.42639     0.60579
0.17558     0.85484     0.19346     0.24031     0.24708     0.18659      0.1563     0.29148     0.96173     0.20221     0.41059    0.091733     0.09312      0.1798     0.43895     0.61883
0.17474     0.88138     0.19592     0.24156     0.24999      0.1881     0.15687     0.27017     0.96133     0.20656     0.39125    0.090659    0.094249     0.18094     0.43764      0.6208
0.17611     0.88096     0.19761     0.24341     0.25229     0.19338     0.15913     0.29334     0.97201     0.20808     0.40744     0.11333    0.094478     0.18312     0.45489     0.62232
0.18167     0.88694     0.19869     0.24548     0.25407      0.1929     0.16101     0.28753     0.98628     0.20833       0.404     0.10116    0.096979       0.183     0.43898     0.62536
0.17974     0.88519     0.19973     0.24887      0.2568     0.19492     0.16332     0.28483     0.98864     0.21336      0.4146     0.10375    0.095283     0.18679     0.44544     0.64349
0.18103     0.89676     0.20033     0.25042     0.25455     0.19251     0.16236     0.28314     0.97619     0.20931     0.41484    0.098325    0.094492     0.18284     0.42897     0.61224
0.17745      0.8622     0.19631     0.24153     0.24453     0.18532       0.155     0.27557      0.9568     0.20437     0.40406     0.08785    0.093565     0.18152     0.42568     0.61277
0.17509     0.85968     0.19484     0.23969     0.24346     0.18307     0.15325     0.28743     0.95752     0.20296     0.39393    0.098739    0.093652     0.18079     0.43463     0.60636
0.17564     0.85852     0.19383     0.24137     0.24576     0.18434     0.15395     0.27897     0.95591     0.20231      0.4069    0.095655    0.094974     0.17738     0.43063     0.62595
0.1763     0.85966      0.1956     0.24312     0.24637     0.18616     0.15521     0.27718     0.97883     0.20264     0.40319     0.11187    0.093661     0.18023     0.42207     0.61823
0.1775     0.85565     0.19857     0.24465     0.24597     0.18773     0.15792     0.27389      0.9494     0.20616     0.39799    0.096719    0.094291     0.17968      0.4296     0.62866
0.17663     0.86101      0.1984     0.24635     0.25208     0.19114     0.15831     0.29883     0.96837     0.20686     0.40933    0.096259    0.096392     0.18122     0.44021     0.62472
0.17873     0.86993     0.20032     0.24787     0.25256     0.19357     0.16198     0.29383      0.9675     0.20799     0.39658     0.10498    0.095298     0.18318     0.44656     0.62807
0.18227     0.88331     0.20138     0.24998     0.25566     0.19537     0.16247     0.30735     0.97483     0.21025     0.42492    0.090533    0.096014     0.18577     0.45707     0.63341
0.18     0.89432     0.20392     0.25126     0.25818     0.19774     0.16485     0.29241     0.98853     0.20989     0.42573     0.10355     0.09896     0.18437     0.44619      0.6373
0.17853     0.87448     0.20274     0.24508     0.24913     0.18897     0.15696     0.28123     0.95514     0.20464     0.40329     0.10928    0.095404     0.17947     0.43694     0.60174
0.17459     0.86388     0.19821     0.24321     0.24542     0.18815      0.1543     0.29605     0.93725     0.20124     0.40635     0.10713    0.094251     0.18082     0.43119     0.61668
0.1774     0.88121     0.19818     0.24333     0.24541      0.1868     0.15617     0.29022     0.96299      0.2028     0.40026    0.088721     0.09408     0.18018     0.42255      0.6155
0.17691     0.87607     0.19886     0.24385      0.2461     0.18866      0.1559     0.29192     0.95159     0.20523       0.421    0.091882    0.095217     0.17978     0.43417     0.61675
0.17794     0.88068     0.19868     0.24471     0.24782     0.18983     0.15728     0.28246     0.95483     0.20422     0.40127     0.08748    0.096646     0.17999     0.43721     0.61329
0.17968     0.86876     0.19959     0.24657     0.24923     0.19326     0.15971     0.29541     0.97684     0.20608     0.41741     0.10077    0.096807     0.18225     0.43567     0.62508
0.18034     0.87005     0.20172     0.24821      0.2523     0.19484     0.16122     0.29405     0.97872     0.21056     0.39887    0.093879    0.097097     0.18289     0.43752     0.62215
0.18145     0.88326      0.2009     0.25092     0.25518     0.19567     0.16349     0.29282     0.97956     0.21206      0.4167     0.10579    0.098375     0.18591     0.44471     0.63435
0.18122     0.89473     0.20518     0.25235     0.25799     0.19794     0.16454     0.29768     0.98166     0.21089     0.42047    0.096891    0.097489      0.1848     0.43867     0.62499
0.17731     0.88474     0.20086     0.24658     0.24688     0.18884     0.15779     0.28948     0.96067     0.20644     0.38793    0.093607    0.095447     0.18162     0.43834     0.62382
0.1768     0.87717     0.19752     0.24381     0.24602     0.18699     0.15588     0.28811     0.94994     0.20612     0.41022    0.094928    0.094117     0.17975     0.43674     0.61852
0.17564     0.87111     0.19797     0.24428      0.2457     0.18837     0.15819     0.29832     0.95465     0.20517     0.41088    0.077673     0.09428     0.18043     0.42816      0.6225
0.18105     0.87018     0.19896     0.24504      0.2472     0.18937     0.15778     0.28885     0.97609     0.20464     0.40185     0.09686    0.093605     0.17946     0.43002     0.60351
0.17822     0.86929     0.19782     0.24504     0.24797     0.18983     0.15964      0.2844     0.97023     0.20717     0.41379    0.091257    0.095306        0.18     0.42314     0.60978
0.17544     0.87104     0.20007     0.24735     0.25034     0.19279     0.16099     0.28131     0.96528     0.20892     0.40293     0.09707    0.096065      0.1803     0.42461     0.61917
0.17955     0.87807      0.2014      0.2487     0.25253      0.1931     0.16505     0.28161     0.98362      0.2109      0.3916    0.093069    0.096664     0.18343     0.45267     0.62912
0.18058     0.89138     0.20072     0.25288     0.25413      0.1964     0.16572     0.30289     0.99116     0.21267     0.41622     0.08441    0.098025     0.18357     0.45341     0.63976
0.17977      0.8818     0.20419     0.25388     0.25725     0.19796     0.16653     0.30302     0.98019      0.2134     0.41771    0.096851    0.097149     0.18485     0.44204     0.63372
0.17973     0.88001     0.19964     0.24804     0.24729     0.19018     0.15815     0.28291     0.95629     0.20665     0.41225    0.092756    0.094986     0.17932     0.41852     0.61252
0.17525     0.87312     0.19754     0.24313     0.24467     0.18837     0.15681     0.29104     0.96762     0.20542     0.40159    0.098008    0.093662     0.18019     0.42836     0.61704
0.17332     0.86351     0.19504     0.24263     0.24465     0.18918     0.15761     0.29031     0.96046     0.20456     0.41277     0.10466    0.094196     0.17812     0.42353      0.6218
0.17602     0.87013      0.1969     0.24386      0.2465      0.1878     0.16046     0.28003     0.95271     0.20591     0.41423    0.095293    0.094097     0.17811     0.42738     0.62301
0.17417     0.86042      0.1962     0.24585     0.24848     0.18958      0.1592     0.29528     0.96989     0.20788     0.41013       0.092    0.094203     0.17736     0.44108     0.61853
0.18001     0.88075     0.19911     0.24551      0.2504     0.19179     0.16157     0.29327     0.97435     0.21087     0.41082     0.10295    0.095546     0.18007     0.43672     0.62497
0.1812     0.86902     0.19911     0.24979      0.2539     0.19591     0.16532     0.29073     0.97302     0.21274     0.40712    0.096613    0.096444     0.18132     0.43288     0.63861
0.17833      0.8787     0.20103     0.25038     0.25584     0.19633     0.16587     0.28965     0.99477     0.21345     0.40766    0.095877    0.097194     0.18441     0.44034     0.62434
0.17851     0.87405     0.20262     0.25421     0.25838     0.19723     0.16703     0.29816     0.98302      0.2169     0.40929     0.10034    0.098272     0.18296     0.44476     0.62262
0.17747      0.8932     0.20043     0.25304     0.25434     0.19314      0.1631      0.2899     0.97744     0.21197     0.41002     0.10338    0.095969     0.18001     0.44345     0.62062
0.17548     0.86995     0.19749     0.24783     0.24847     0.18824     0.15907     0.28847     0.95172     0.20861     0.38597    0.090935     0.09396      0.1782     0.43275     0.60611
0.17357     0.86555     0.19546     0.24542     0.24574     0.18789     0.15786     0.27592     0.95228     0.20734     0.39441     0.10644    0.094409     0.17686     0.42661     0.61356
0.17386     0.87216     0.19586     0.24601     0.24688     0.18801     0.16008     0.27821     0.96237     0.20855     0.39715     0.10148    0.094003     0.17865      0.4326     0.60156
0.17232     0.86532     0.19518     0.24517     0.24956      0.1889     0.15987     0.27925     0.95758     0.20896     0.40032     0.10071    0.094704     0.17839     0.43163     0.62789
0.17622     0.87343      0.1954       0.249     0.25356     0.19017     0.16463     0.29895     0.96354     0.21523     0.41264    0.092731     0.09539     0.17957     0.43853      0.6189
0.17476     0.87413     0.19779     0.25231     0.25465     0.19322     0.16594     0.28328     0.97626     0.21379     0.40258     0.10209    0.096945     0.17994     0.45161     0.61701
0.17655     0.89012     0.19978     0.25482     0.25901     0.19601      0.1685     0.28163     0.97094     0.21506     0.39834    0.094145    0.096933     0.18152     0.42705     0.63864
0.1801     0.87137     0.20041     0.25783     0.26283     0.19581     0.17083     0.28475     0.98542     0.22174     0.39532    0.098139     0.10021     0.18364     0.44518     0.63168
0.17694     0.88204     0.20072     0.26584      0.2712     0.20236      0.1743     0.31514     0.99464     0.22479      0.3955    0.098743     0.10139     0.18367     0.44627      0.6625
0.17884     0.86141     0.19836     0.25602     0.26416     0.19561     0.16718     0.29083     0.97877     0.21657     0.39294      0.1032    0.098579      0.1804     0.44058     0.63622
0.17336     0.85831     0.19491     0.25372     0.26288     0.19339     0.16472     0.28997     0.96747     0.21561     0.40415    0.099553    0.097438      0.1772     0.43985     0.63672
0.17495     0.84964     0.19509     0.25255     0.26448     0.19588      0.1663     0.28546     0.96893     0.21719     0.38359     0.10331    0.099495     0.17793     0.43369     0.61924
0.17312     0.85531     0.19301      0.2568     0.27102     0.20049     0.16889     0.29175     0.97114     0.21773     0.38867     0.11193     0.10002     0.17764      0.4338     0.63851
0.17413     0.86479     0.19354     0.25706     0.27115     0.20206     0.17072     0.28941     0.96313     0.21963     0.38456     0.11624    0.099774     0.17901     0.43984     0.62872
0.1787      0.8719     0.19403     0.25792     0.27533     0.20419     0.17428     0.29687     0.99096      0.2205     0.40529     0.10651       0.101     0.18041     0.43137     0.62785
0.17744     0.84738     0.19649     0.26063      0.2786     0.20594     0.17477     0.30729     0.98624     0.22168     0.39737    0.099922     0.10192     0.18014     0.42801     0.65178
0.18114     0.86835      0.1976     0.26372     0.28243     0.20985     0.17625     0.30105     0.97933     0.22526     0.40512     0.11197     0.10159     0.18319     0.45259      0.6659
0.17932     0.86896     0.19852     0.26432     0.28378     0.21078     0.17816     0.29425     0.97773     0.22612     0.39522    0.095959     0.10245     0.18482     0.45496     0.65355
0.17682     0.86733     0.19651     0.25895     0.27557     0.20324     0.17256     0.29361     0.96825     0.22062     0.39334    0.089306     0.09988     0.18013     0.42706     0.65455
0.17618     0.86462     0.19426     0.25699     0.27119     0.20281     0.16964      0.2831      0.9516     0.21931     0.38482     0.10676    0.098571     0.17756     0.43371     0.62083
0.17431     0.84813     0.19337     0.25403     0.27155     0.20064     0.16877      0.2806     0.97521     0.21754     0.38019     0.10015    0.099085     0.17776     0.43441     0.62829
0.17355     0.85676     0.19234     0.25468     0.27002     0.19886     0.17085     0.28766     0.95377     0.21861     0.38864     0.10348    0.098423     0.17859     0.43869     0.63353
0.17367     0.85559     0.19262     0.25361     0.26772     0.20066     0.17088     0.29449     0.95974     0.21815     0.39204      0.1062    0.098995       0.178     0.44499     0.65358
0.17472     0.86891     0.19453     0.25477     0.26506     0.19833     0.17063     0.28715     0.97069     0.21871      0.3941     0.10487    0.097679     0.17813     0.43768     0.64203
0.17385     0.85781     0.19289     0.25659     0.26311     0.19861     0.17119      0.3048     0.96759     0.22158     0.39345    0.087414    0.098944     0.17989     0.42076     0.64041
0.17574     0.85275     0.19658     0.25779     0.26239      0.1985      0.1729     0.29287     0.97253     0.22153     0.40061     0.10505    0.098888     0.18084     0.43661     0.63849
0.17646     0.87713     0.19869     0.25967     0.26353     0.19829     0.17248     0.30191     0.99495     0.22094      0.3997     0.10971    0.099443     0.18286     0.43739     0.64049
0.17714     0.87699     0.19802     0.25726     0.26015     0.19414     0.17129     0.29947     0.96225     0.21604      0.3904     0.10238    0.096851     0.18003     0.44837     0.63666
0.17417     0.84514     0.19323     0.25001      0.2516     0.18549     0.16414     0.28635     0.96365     0.21405     0.38171     0.10261     0.09412     0.17846     0.40963     0.62157
0.17159      0.8415     0.19062     0.24801     0.24851     0.18465     0.16206     0.27935     0.96279     0.21115     0.40489     0.11395    0.093802     0.17749     0.42657      0.6264
0.17239     0.83528     0.19132     0.24729      0.2499     0.18601      0.1634     0.27908     0.95346     0.21236     0.38369     0.10226    0.095485     0.17779     0.43145     0.62996
0.17294     0.83611     0.19228     0.24722     0.24882     0.18584     0.16317     0.28678     0.96254     0.21124     0.38439    0.099827     0.09548     0.17815     0.42206     0.61515
0.17341     0.84144     0.19138     0.24769     0.25169     0.18748     0.16378     0.28473     0.95431      0.2137      0.4039     0.09323    0.094966      0.1789     0.42696     0.62913
0.17347     0.84372     0.19302     0.25197      0.2551     0.19072     0.16953     0.28691     0.98059     0.21971     0.39912     0.10312    0.096777     0.18088     0.43403     0.63527
0.17508     0.85698     0.19326     0.25889     0.26039     0.19618     0.17147     0.28371     0.97209      0.2248     0.38515      0.1048    0.096744      0.1829     0.43133     0.66063
0.17713     0.86318     0.19276     0.26287     0.26569      0.1979      0.1749     0.30945     0.98388     0.22664     0.39965     0.10667    0.098903     0.18283     0.45014     0.67418
0.17703     0.86464     0.19293     0.26386       0.262     0.19622     0.17566     0.30462     0.98118     0.22469     0.39825     0.10649    0.097213     0.18183     0.43759     0.63725
0.17158     0.85928     0.18974     0.25549     0.25316     0.18835     0.16821     0.29939      0.9689     0.21951     0.39193     0.10953    0.095431     0.18049     0.42992     0.63692
0.17315     0.85514      0.1872     0.25259     0.25272     0.18799     0.16578     0.28813     0.96611     0.21708     0.40024     0.10564    0.095133     0.17804      0.4314     0.63053
0.17403     0.83664     0.18743     0.25146     0.25268     0.18819     0.16744     0.28402     0.94074     0.21761     0.40191     0.10885    0.096791     0.17885     0.42034      0.6341
0.17332     0.83516     0.18762     0.25036     0.25458     0.18809     0.16864     0.29314     0.93665     0.21706     0.41821    0.099688    0.095245     0.17773     0.43383     0.62492
0.17449     0.84179     0.18683     0.25258     0.25522     0.18876     0.16771     0.28208     0.96873     0.21724     0.39171    0.091865    0.095208     0.17907     0.42743     0.62754
0.17307     0.84583     0.18786      0.2544     0.25874     0.19005     0.17024     0.28944     0.97257     0.22069     0.40489     0.10582    0.096887     0.18183     0.42899     0.64415
0.1754     0.84762     0.18831      0.2542     0.25996     0.19309     0.17053     0.29258     0.97514     0.22062      0.3916     0.09083     0.09698     0.18293     0.43681      0.6496
0.17377     0.85414     0.18909     0.25702     0.26276     0.19464     0.17208     0.29168     0.96529     0.22231     0.40093     0.10487    0.097342     0.18304     0.43393      0.6519
0.17418     0.84961     0.18893     0.25258     0.25531      0.1882     0.16553     0.29931     0.96846     0.21539     0.38082    0.099018    0.096528     0.17986      0.4258     0.63703
0.17206      0.8427     0.18694     0.24631     0.25242     0.18473     0.16188     0.26738     0.95922     0.21333     0.40098    0.097393    0.094258     0.17688     0.42859     0.62262
0.1694     0.82953     0.18276     0.24716     0.25069     0.18312     0.16104     0.27462     0.96032     0.21555     0.39546     0.10714    0.094761     0.17926     0.40563     0.63218
0.17328      0.8359     0.18463     0.24548     0.24981     0.18848      0.1645     0.29177     0.94869     0.21014     0.40539     0.10802     0.09452     0.17915     0.43862     0.62134
0.17287       0.833      0.1855     0.24552     0.25277     0.18814     0.16299     0.27629     0.95625     0.21097     0.38793     0.10164    0.094426     0.17968     0.42912     0.62824
0.1715     0.84675     0.18793     0.24829     0.25297     0.18863      0.1638     0.28098      0.9552     0.21158     0.39397     0.10546    0.097048     0.17994     0.42779     0.62914
0.17463     0.83496     0.18901     0.24641     0.25734     0.19156     0.16672     0.29648      0.9774     0.20906     0.40268     0.10553      0.0965     0.17975       0.443     0.63725
0.17406     0.85158     0.18992     0.24992     0.25914     0.19385     0.16908      0.2901     0.97254     0.21556     0.39143      0.1016    0.097427     0.18299     0.43664     0.63251
0.1748      0.8486     0.18912     0.25143     0.25889     0.19466     0.16695     0.30934     0.96376     0.21188     0.40299    0.087906    0.097246     0.18164     0.42942     0.63079
0.1716     0.83863      0.1867     0.24281      0.2536     0.18818      0.1602     0.29247     0.95097     0.20804     0.40539     0.10368    0.094325     0.17972     0.42641     0.60881
0.16791     0.83555     0.18471      0.2426     0.25198     0.18764     0.16095     0.28265      0.9509     0.20886     0.40326     0.11474    0.093816     0.17576     0.41835     0.61598
0.17275      0.8175     0.18543     0.24261     0.25404     0.18924     0.16369     0.29785     0.95971     0.20928     0.39194     0.11342     0.09489     0.17708     0.43259     0.63228
0.16836     0.82381     0.18196     0.24396     0.25474     0.18953     0.16325      0.2975     0.96826     0.20895      0.4017    0.092297    0.096858     0.17545     0.42717     0.62903
0.1675     0.83169     0.18367     0.24576     0.26109     0.19426     0.16743     0.28926     0.97778     0.21214     0.39368     0.10041     0.10072      0.1747     0.42786     0.66553
0.17164     0.82259     0.18367     0.24333     0.26751     0.20064     0.17133     0.30869     0.96819     0.21184     0.40001     0.10559     0.10068     0.17475     0.45277     0.65645
0.17249     0.84898     0.18644     0.24789     0.27025     0.20375      0.1738     0.30216     0.97896     0.21112     0.37494     0.10028     0.10369     0.17482     0.45054     0.65834
0.17552     0.84552     0.18748     0.24811     0.27272      0.2052     0.17508     0.30752     0.97334     0.21246     0.42245     0.10022     0.10349     0.17847     0.45435     0.66612
0.17607     0.84829     0.18739     0.24742     0.26986     0.20224     0.17271     0.31426      0.9682      0.2093     0.40597     0.10194     0.10133     0.17481     0.44377     0.65087
0.17302     0.82696      0.1851     0.24091      0.2626     0.19525     0.16776      0.3041     0.95496     0.20492     0.38701     0.10097    0.099944     0.17323     0.44821     0.64106
0.17123     0.83335      0.1834     0.23978     0.26287     0.19446     0.16653     0.30241     0.94312     0.20462     0.39483     0.11078    0.097849      0.1733     0.43501     0.64025
0.16887      0.8386     0.18297     0.23994      0.2646     0.19629     0.16902      0.2965     0.97188     0.20618     0.38728     0.10152    0.099952     0.17237     0.44694     0.65434
0.17065      0.8378     0.18485     0.24079     0.26499     0.19965     0.17097     0.28854     0.96888     0.20899     0.40202    0.099059     0.10081     0.17389     0.44776     0.66119
0.17318     0.83512     0.18434     0.24378     0.26985     0.20584     0.17399     0.31384     0.96002     0.21318     0.39609      0.1066     0.10308     0.17561     0.45622     0.67785
0.17156     0.84738     0.18392     0.24493     0.27254     0.20686     0.17552     0.32058     0.96514     0.21126     0.41372    0.091958     0.10268     0.17645     0.45384      0.6701
0.17569      0.8439     0.18739     0.24401     0.27476     0.20565     0.17627     0.32226     0.97505     0.21039      0.4029     0.09755     0.10191     0.17798     0.45812     0.66617
0.17705     0.85914     0.18938      0.2491      0.2765      0.2085     0.17764     0.32648      0.9727     0.21185     0.40051     0.10866     0.10348     0.17877     0.45651      0.6489
0.17419      0.8504     0.18683     0.24407     0.27021      0.2036      0.1709     0.30932     0.96272      0.2075     0.38915     0.10716     0.10114     0.17637     0.44553     0.64453
0.17382     0.83269     0.18442     0.24286     0.27299     0.20431     0.17193     0.32525      0.9606     0.20997     0.38985     0.08839     0.10183     0.17366     0.44167     0.65449
0.17289     0.85206     0.18316     0.24525     0.28097     0.21319     0.17323     0.31625     0.97952     0.21649     0.39383    0.089106     0.10066     0.17542     0.45246     0.65485
0.17292      0.8311     0.18441     0.25166     0.28572     0.20928     0.17454     0.30331     0.97991      0.2225     0.39589     0.10179     0.10052     0.17962     0.43472     0.63939
0.17461     0.83778     0.18609     0.25446      0.2868     0.20751      0.1748      0.3027     0.96253      0.2226     0.40282     0.11094      0.1004     0.18063     0.44116     0.63809
0.17544     0.84127     0.18861     0.25668     0.29022     0.20868     0.17519       0.295     0.97292      0.2209     0.39582    0.099203    0.099064     0.18131      0.4335     0.64746
0.17438     0.86189     0.18925     0.26338     0.29331     0.21127      0.1778     0.30593     0.97783     0.23054      0.3986    0.097128     0.10215     0.18296     0.42809      0.6524
0.17513     0.87193     0.19288     0.26865     0.30253     0.21629     0.18137     0.31527     0.97905     0.23058     0.40184     0.11421     0.10474     0.18346     0.45275     0.65543
0.17702     0.86045     0.19466     0.27028     0.30877     0.22018     0.18398     0.31766     0.98446     0.23427     0.40072     0.11316     0.10574     0.18499     0.44575     0.66658
0.17654     0.84979     0.19261     0.26728     0.29937     0.21315     0.17669     0.29447     0.96207     0.22686     0.38892     0.11208     0.10268       0.181     0.42845      0.6307
0.17453     0.84624     0.18897     0.25755     0.29446     0.20652     0.17286       0.304     0.96329     0.22055     0.39141      0.1072     0.10116     0.17913     0.43278      0.6268
0.17239     0.83795     0.18812     0.25352     0.29094     0.20511     0.17161     0.30037     0.96069     0.22129     0.38881    0.089142     0.10177     0.17894     0.43859     0.62899
0.17274     0.84094     0.18853     0.25531     0.29245      0.2068     0.17472     0.31103     0.96086     0.22271       0.398     0.10433     0.10201      0.1785     0.43319     0.65011
0.17332     0.84252     0.18914     0.25422     0.28972     0.20966     0.17573     0.30007     0.96084     0.22368     0.38818    0.099311     0.10199     0.18098     0.44515      0.6572
0.1739     0.83841     0.18902     0.25811     0.29375     0.21162      0.1758     0.31797     0.97408     0.22371      0.3827    0.097015     0.10333     0.18138     0.44245     0.64452
0.17349     0.84639     0.18987      0.2621     0.29814     0.21506     0.17898     0.33078      0.9738     0.23043     0.39624     0.10863     0.10435     0.18284     0.44634     0.65764
0.17713     0.86117     0.19149     0.26509     0.29927     0.21504     0.18135     0.32093     0.98545     0.22947     0.40214    0.095334     0.10617     0.18356     0.44113     0.65865
0.17615     0.86754      0.1936     0.26671     0.30217     0.21539     0.18222     0.32341     0.99147     0.22917     0.39549     0.10749     0.10443      0.1828     0.45159     0.65548
0.17907     0.87704     0.19485     0.26448     0.29739      0.2137     0.17958     0.30729     0.97851     0.22304     0.39131    0.092036     0.10312     0.18198     0.44266     0.64771
0.17365     0.84804     0.19039     0.25427     0.28885     0.20636     0.17268     0.29257     0.96914     0.21858     0.40111    0.098334     0.10192     0.17845     0.43803     0.64324
0.17394     0.82801     0.18888     0.25193     0.28751     0.20572     0.17158     0.30012     0.96754     0.21844     0.38947    0.095468     0.10007     0.17829     0.42813     0.65335
0.17442     0.84572     0.18987     0.25444     0.29087     0.20842     0.17392     0.29696     0.97013     0.22295     0.38543    0.097867     0.10243     0.18251     0.44676     0.65106
0.17279     0.84594     0.18851     0.25929     0.29594     0.21343     0.17794     0.31726       0.979     0.22764     0.40303    0.097845     0.10306     0.18162     0.45455     0.65565
0.17554     0.85827     0.19034     0.26116     0.30299     0.21904     0.18087     0.31623     0.97341     0.23096     0.38044     0.10933     0.10366     0.18201      0.4494     0.65121
0.17545     0.85728     0.19118     0.26399     0.30601     0.21915     0.18317     0.31363     0.97903      0.2311     0.38853     0.10892       0.105     0.18425     0.42858     0.66918
0.1758      0.8588     0.19178      0.2671      0.3059     0.21827     0.18409     0.31591     0.98316     0.23107     0.39623       0.117     0.10411      0.1854     0.44351      0.6575
0.17714     0.86978     0.19453     0.26624     0.30709     0.21848     0.18384     0.33034      1.0027     0.23462     0.39616      0.1175     0.10417     0.18532     0.45053     0.66964
0.17846      0.8788     0.19688     0.26984     0.30469     0.22015     0.18309     0.31381     0.97756     0.23089     0.38534    0.097532     0.10404     0.18321      0.4574     0.66058
0.17615     0.85451     0.19551     0.26111     0.29346     0.21034      0.1754     0.31308     0.97396     0.22525     0.38592     0.11667     0.10274     0.18161     0.43535     0.65162
0.17283      0.8444     0.19176     0.26017     0.29052     0.20917     0.17396     0.31023     0.97224     0.22654     0.38816     0.10859     0.10284     0.18053     0.43994     0.63382
0.17451     0.84577     0.18959     0.25946     0.29097     0.21025     0.17585     0.29711      0.9781     0.22734     0.38781     0.11341     0.10308      0.1812     0.43191     0.65125
0.1747     0.84446     0.18824      0.2577     0.28822     0.20958     0.17529     0.30495     0.97958     0.22735     0.38882      0.1058     0.10187     0.18115     0.44953      0.6545
0.17556     0.85055     0.19043     0.25732     0.28414     0.20589     0.17548     0.29862     0.95964      0.2237     0.39153     0.10062     0.10082     0.18147     0.44949     0.64984
0.17509     0.87061     0.19249     0.25794     0.28157     0.20481     0.17502       0.308      0.9721     0.22345     0.39465     0.11263    0.099418     0.18448     0.44367       0.646
0.17706     0.85636     0.19113     0.26158     0.28113     0.20234     0.17488     0.29899     0.97409     0.22948      0.3805     0.10112    0.098892     0.18557     0.43556     0.64357
0.17685      0.8545      0.1935      0.2639     0.28269     0.20074     0.17724     0.30153     0.98038     0.22998     0.40086    0.099303    0.098585     0.18657     0.44905     0.65909
0.17798     0.86826     0.19498     0.26328     0.28386      0.2033     0.17896     0.30651     0.98633     0.22896     0.40794    0.097091     0.10007      0.1879     0.45031     0.65745
0.17737     0.86699     0.19551     0.26077     0.27753     0.19756     0.17358     0.29954     0.96968     0.22548     0.39527    0.096184    0.097182     0.18377     0.43429     0.64985
0.17665     0.83145     0.19094     0.25256     0.26909     0.19181     0.16801     0.29839      0.9737     0.21933     0.39077     0.10348    0.096628     0.18271     0.43807     0.63645
0.17325     0.83363     0.18852     0.25034     0.26558     0.18836     0.16826     0.28485     0.96558     0.22003     0.38752     0.10021      0.0969     0.18343     0.43561     0.64846
0.17275     0.84422     0.18965     0.25097      0.2684     0.19291     0.16868     0.30151     0.97143     0.21847     0.41044    0.098462     0.09746     0.18333     0.43975     0.64762
0.17584     0.85137     0.18936     0.24758     0.26918     0.19344     0.16928     0.29758     0.94695     0.21354     0.39276    0.094101    0.096569     0.18329     0.44146     0.62815
0.17301     0.83069     0.18991     0.24917     0.27105     0.19298     0.16958     0.29024     0.95948     0.21814     0.39435     0.09205    0.096628     0.18437     0.44622     0.63819
0.17462     0.84948     0.18867      0.2602     0.27213     0.19316     0.17135     0.29262     0.97576     0.23106     0.40438     0.11046    0.095951     0.18557     0.43649     0.64754
0.17406     0.85692     0.19101     0.26715     0.27604     0.19635     0.17465     0.29497      1.0007     0.23521     0.39659     0.11108    0.099073     0.18698     0.44951      0.6583
0.17908     0.86053     0.19089      0.2718     0.28484     0.20283     0.17776     0.29446     0.98626     0.23882     0.38174     0.10491     0.10141     0.18986     0.45209     0.67427
0.18038     0.86165     0.19212     0.26377     0.28744     0.20156     0.17489     0.28806      1.0003     0.22831     0.40429     0.10841     0.10166     0.18677     0.43417     0.64857
0.1728     0.84596     0.19059     0.26017     0.29029     0.20232      0.1724     0.29393     0.96822     0.22833     0.39587    0.096319    0.099824     0.18324     0.42765     0.63615
0.17227     0.84354     0.18834     0.25728     0.28608     0.19961     0.16935     0.28475     0.97622     0.22119      0.3983     0.10368    0.099295      0.1822      0.4424     0.65386
0.17332       0.862     0.18854     0.25642     0.28734     0.20076     0.16966     0.27762     0.95658     0.21997     0.40131    0.096532     0.10004     0.18433     0.43532     0.62859
0.17572     0.84032     0.18893     0.25515     0.28678     0.20144     0.17246     0.27959     0.95153     0.21877     0.38988     0.10394     0.10151     0.18605     0.45029     0.65102
0.17805     0.85526     0.19061     0.25398     0.28916     0.20187     0.17308     0.30384     0.96302     0.22132     0.40397     0.10313     0.10262     0.18577      0.4403     0.65883
0.17758     0.86247     0.19217     0.25602     0.29059     0.20539     0.17231     0.28349      0.9492     0.22418     0.40826    0.094424     0.10158     0.18616     0.43722     0.65034
0.17589     0.87249      0.1937     0.25858     0.29098     0.20642     0.17495     0.29992      0.9693     0.22144     0.39886    0.097681     0.10296     0.18838     0.44131     0.63754
0.18162      0.8729     0.19519     0.25822     0.29183     0.20631     0.17619     0.31903     0.96003     0.21779     0.41108     0.10901     0.10195     0.19017     0.42453     0.65626
0.17434     0.85143     0.19217     0.24762     0.28072     0.19962     0.16775      0.3029     0.93057     0.20878     0.39717       0.094     0.10144     0.18389     0.43911     0.63593
0.17577     0.83496     0.19195     0.24131     0.27419     0.19622     0.16551     0.29995     0.94164     0.20077     0.40301    0.095461     0.10003     0.18205      0.4473     0.63234
0.17357     0.86434     0.19001     0.23813     0.27388      0.2011     0.16499     0.30629     0.93108     0.19934     0.39152     0.10662     0.10121     0.17982     0.43532     0.62168
0.17707     0.83942     0.19074     0.23512     0.26866     0.20098     0.16613     0.31396     0.93202     0.19688     0.39068    0.089791    0.099895     0.17991     0.45351     0.60908
0.17372     0.84309     0.19085     0.23432     0.26921     0.20049     0.16494     0.30291     0.94568     0.19798     0.39912    0.099969      0.1009     0.18175     0.44559     0.62319
0.17321     0.84093     0.19141     0.23491     0.27182     0.20022      0.1656      0.3019     0.95061     0.20104     0.41024     0.11142     0.10021     0.18164     0.44973      0.6276
0.1754     0.84581     0.19282     0.23874     0.27403     0.20349     0.16819     0.32195     0.96077     0.20455     0.41578     0.10653     0.10098     0.18491     0.45515     0.63805
0.17471      0.8555     0.19321     0.24204     0.27872     0.20475     0.17061      0.3117     0.96579     0.20616     0.41073    0.098273     0.10136     0.18502     0.46256     0.64422
0.17599     0.83962     0.19134     0.24046     0.27545     0.20154      0.1666     0.30188     0.95313     0.20585     0.39617     0.09401    0.098389     0.18322     0.44342     0.63362
0.17297     0.83467     0.18873     0.24157     0.27231     0.19831      0.1657     0.31053     0.95406     0.20782     0.38897      0.1039     0.09997     0.18064     0.43023     0.64938
0.17244     0.82708     0.18779     0.24722     0.28083     0.20093     0.16968     0.30595     0.96985     0.21406     0.38668     0.10877     0.10154     0.18003     0.45949     0.62827
0.17454     0.83511     0.18707     0.25177     0.28667     0.20472     0.17151     0.30696     0.95531     0.21547     0.39193     0.10562    0.098901     0.18188     0.45219     0.65019
0.17295     0.85915     0.18843     0.25069     0.28782     0.20509     0.17297     0.30324     0.96562     0.21725       0.394      0.1056     0.10121     0.18259     0.44866     0.63966
0.17517     0.85507     0.19058     0.25182     0.28761     0.20758     0.17381     0.31674     0.95952      0.2159      0.4109     0.11289     0.10093     0.18281     0.44834     0.62944
0.17411     0.83675     0.19218     0.25415     0.28818     0.20813     0.17402     0.31221     0.96116     0.21534     0.39511    0.088961     0.10137      0.1841     0.45557     0.63272
0.17641     0.86093     0.19419     0.25511     0.28824     0.20799     0.17465     0.29459     0.96274     0.21566     0.41438     0.10261     0.10058     0.18459     0.45098     0.62653
0.17763     0.86462     0.19508     0.25153     0.28412     0.20572      0.1698     0.30529     0.96259     0.21178     0.39161    0.089739    0.099207     0.18129     0.44072     0.62266
0.1723     0.83254     0.19215     0.24534     0.27467     0.20006     0.16492     0.30641     0.94154     0.20551       0.398    0.099508    0.097366     0.17828     0.43568     0.61062
0.17184     0.82069     0.19016     0.24117     0.27388     0.19818     0.16223     0.29735     0.93134     0.20225      0.3951    0.097775    0.097609     0.17726     0.43876     0.59226
0.17382     0.83208     0.18901     0.24083     0.27556     0.20005     0.16316     0.29591     0.92635     0.20099       0.402    0.093355    0.097829     0.17448     0.43716     0.59278
0.17144     0.82815     0.18987     0.23904     0.27447     0.19997     0.16268     0.30538     0.93711     0.19991     0.38938     0.10043    0.097022      0.1757     0.44129     0.58586
0.1751     0.83448     0.18972     0.24066     0.27691     0.20089     0.16456     0.30086     0.93306     0.20008     0.40174    0.087533    0.099081     0.17475     0.44624     0.61329
0.17563     0.83539     0.19147     0.24272     0.28189     0.20516     0.16654     0.30497     0.92855     0.20157     0.40423    0.097983    0.099705     0.17836     0.45236     0.61804
0.17721     0.84708     0.19151     0.24338      0.2853     0.20942     0.17088     0.31244     0.93772     0.20374     0.40126     0.10204     0.10201     0.18159     0.44905     0.61362
0.17512     0.84398     0.19349     0.24389     0.28594     0.20924     0.16852     0.31453     0.95793     0.20364      0.3965    0.098639     0.10008     0.17852     0.44632     0.61159
0.17427     0.82947     0.18917     0.23989     0.28375     0.20346     0.16349     0.29386     0.93585     0.19964      0.3836    0.097981     0.10006     0.17786     0.43921     0.60656
0.17268     0.83078     0.18826     0.23885      0.2855     0.20093     0.16428     0.30011     0.94332     0.20302     0.38707    0.094344     0.10001     0.17647     0.43371     0.61541
0.17294     0.84163     0.18876     0.24234     0.29038     0.20428     0.16663     0.29621     0.93332     0.20577     0.38173    0.099759     0.10088      0.1769      0.4368     0.62245
0.17267     0.83261     0.18867     0.24449     0.29066     0.20507     0.16646     0.29442     0.94832     0.20581     0.38801    0.097555     0.10225     0.17834     0.46052     0.61696
0.17583     0.84724     0.19028     0.24585     0.29435     0.20722     0.16921     0.31064     0.94685      0.2086     0.39792    0.099738     0.10229     0.17943     0.43692     0.61068
0.17476     0.84207     0.19117     0.25053     0.29993     0.21022     0.17292     0.29603     0.94539     0.21287     0.38868     0.10735     0.10487     0.18216     0.43556     0.61237
0.17845     0.84625      0.1933     0.25621     0.31249     0.21806     0.17674     0.31252     0.96492     0.22096     0.39868    0.087765     0.10484      0.1847     0.45019     0.64106
0.177      0.8748     0.19371      0.2626     0.31998     0.22376     0.18001     0.30818      0.9617      0.2271     0.39315    0.098009     0.10699     0.18518      0.4481     0.63794
0.17735     0.86542     0.19262     0.25971     0.30707     0.21266     0.17141     0.30059     0.97567      0.2219     0.38749     0.10285     0.10454     0.18212     0.43407     0.63891
0.17664     0.84774      0.1887      0.2536     0.29621       0.205     0.16566     0.28312      0.9543     0.21951     0.39499    0.099808     0.10224     0.18021     0.42143     0.61586
0.1757     0.83868     0.19007     0.25217     0.29309     0.20353     0.16485     0.28286     0.95737     0.21707      0.3743    0.093131     0.10347     0.18065     0.42625     0.61735
0.17226     0.84256     0.18939     0.25182     0.28867     0.20173     0.16554     0.27657     0.96059     0.21621     0.39177    0.099726     0.10263     0.17998     0.43692     0.62541
0.17709     0.84823     0.18952      0.2496     0.28918     0.20114     0.16596     0.28164     0.96862     0.21656     0.39053    0.080884     0.10069     0.18092     0.43714     0.61347
0.17598     0.85114     0.19038     0.25344     0.29022     0.20213     0.16914     0.28695     0.95978     0.21532     0.38375     0.10365     0.10375     0.18357     0.42277      0.6228
0.17658     0.84908     0.19337     0.25491     0.29222     0.20421     0.16986       0.292     0.96734     0.21769     0.39608    0.094928     0.10489     0.18342     0.43845     0.62494
0.17738     0.85314     0.19412     0.25485     0.29431     0.20713     0.16994     0.28527     0.96689     0.21887     0.39234      0.1085     0.10453     0.18495     0.43151     0.64624
0.17759     0.84616     0.19542     0.25633     0.29621     0.20805     0.17293      0.3028     0.96754     0.21794     0.40088    0.091964     0.10508     0.18667     0.44226     0.65049
0.17803     0.84419      0.1943     0.25401     0.29029     0.20298     0.16719     0.30437     0.94886     0.21293     0.40015     0.10176     0.10355     0.18314     0.43769     0.62497
0.17641     0.84578     0.19399     0.24835     0.28308     0.19827     0.16412     0.28991     0.96064     0.21159     0.39331    0.092434     0.10216      0.1812     0.43341      0.6254
0.17729     0.84205     0.19117     0.24697     0.28287     0.19782      0.1639     0.28574     0.95065     0.20985     0.38793    0.098528     0.10214     0.18157     0.42443      0.6159
0.17727     0.84642     0.19253     0.24794     0.28638     0.19933     0.16502     0.28454     0.94451     0.20959     0.37804     0.10182     0.10242     0.18174     0.43523     0.60987
0.17656     0.84272     0.19338     0.24709     0.28657     0.20089     0.16786      0.2932     0.95061     0.20856     0.40967    0.096801     0.10314     0.18163     0.43109     0.61067
0.17492     0.85578     0.19397     0.25062     0.29064     0.20542     0.16919     0.28697     0.94312      0.2121     0.38712    0.092616     0.10256     0.18298     0.42442     0.61715
0.17856     0.85226     0.19645     0.25195     0.29588     0.20637     0.17079     0.31309     0.96215      0.2136     0.40025     0.10078     0.10418     0.18467      0.4402     0.63063
0.1805     0.86757     0.19573     0.25357     0.29956     0.21056     0.17291     0.29492     0.96204     0.21601     0.40156    0.099448     0.10505     0.18565     0.45049     0.64313
0.17804     0.87274     0.19795     0.25698     0.30276     0.21291     0.17436     0.30779     0.98139     0.21952     0.39619     0.10099     0.10662     0.18679     0.45545     0.64889
0.17678     0.87111     0.19677     0.25231     0.29432     0.20872     0.17023     0.30525      0.9754     0.21164      0.4091    0.095005     0.10471     0.18403      0.4326     0.64732
0.17659     0.85906     0.19476     0.24892     0.28944     0.20362     0.16669     0.28995     0.95497     0.21054      0.3978    0.087715     0.10295     0.18128     0.43357     0.61584
0.17563     0.84089     0.19372     0.24701     0.28799     0.20271     0.16655      0.2982     0.95709     0.21077     0.40343     0.10104     0.10312     0.18276     0.43271     0.63347
0.17648     0.85506     0.19447     0.24938     0.29002     0.20309     0.16631     0.29493      0.9658     0.21158     0.38415    0.091807     0.10182     0.18096     0.43211     0.62497
0.17498      0.8522      0.1951     0.25113     0.29006     0.20448     0.16873     0.29072     0.94976     0.21243     0.39611      0.1069     0.10307     0.18239     0.44325     0.62492
0.17865     0.86335     0.19512     0.25252     0.29354     0.20735     0.16984     0.29063     0.97392     0.21499     0.39622    0.097937     0.10324     0.18266     0.44018     0.62674
0.17882     0.86941     0.19711     0.25532     0.29641     0.21025       0.173     0.31962     0.96062     0.21671     0.40152     0.10446     0.10556     0.18388      0.4339     0.63322
0.17998     0.86198     0.19944     0.25672     0.29961     0.21159     0.17375     0.30936      0.9843      0.2182      0.4065     0.10875     0.10565      0.1852     0.43439     0.63622
0.18268     0.85806     0.19933     0.25917     0.30015     0.21362     0.17509     0.30573     0.96672     0.21939     0.40879     0.10927      0.1065     0.18659     0.45728     0.64732
0.17926     0.87076     0.20034      0.2602     0.30324     0.21307     0.17444     0.30549     0.98739     0.21948     0.41695    0.087375     0.10454     0.18585     0.43332     0.63974
0.17918     0.86994     0.19535     0.25375     0.29095     0.20419     0.16697     0.29019     0.96143     0.21419     0.39297    0.088472     0.10277     0.18271     0.44761     0.62885
0.17651     0.86194     0.19465     0.24948     0.28843     0.20394     0.16614      0.2903     0.95912     0.21223     0.39237     0.10232     0.10292      0.1808     0.43023     0.60697
0.17613      0.8544     0.19401     0.25081     0.28916     0.20265     0.16779     0.27966     0.96535     0.21236     0.40538     0.10425     0.10069     0.18058     0.43476     0.61324
0.17795     0.85921      0.1938     0.25028     0.28991     0.20476     0.16838     0.30563     0.96898     0.21282     0.40475       0.104     0.10348     0.18044     0.43188     0.60829
0.17787     0.85522     0.19599     0.25281     0.29294     0.20635     0.16876     0.29755     0.96308     0.21337      0.3913    0.097864     0.10391     0.18161     0.44142     0.63292
0.18145      0.8667     0.19728     0.25486     0.29554     0.20874     0.17293     0.30871     0.97548     0.21584     0.40584    0.092939     0.10518     0.18428     0.43294       0.632
0.17853     0.87614     0.19758     0.25711      0.2987     0.21084     0.17441     0.30312     0.97956     0.21927      0.4189    0.099691     0.10591     0.18549     0.44584     0.62275
0.17738     0.87232     0.19989     0.25833     0.30178     0.21155     0.17445     0.31428     0.99031     0.22024     0.40387     0.10023     0.10597     0.18576     0.43742     0.63868
0.18094     0.87741     0.20053     0.26066     0.30449     0.21384     0.17822     0.31419     0.98984     0.22083     0.42149     0.10716     0.10708     0.18625     0.44891     0.64774
0.1809     0.87422     0.19816     0.25715     0.29849     0.21076     0.17224     0.30019     0.98256     0.21398     0.40994     0.10351     0.10336     0.18321      0.4359     0.62385
0.18055     0.85985     0.19647     0.25173     0.29046     0.20473     0.16868     0.29502     0.97181      0.2126     0.40552     0.10439     0.10211     0.18259     0.43639     0.62574
0.17985     0.86427     0.19382     0.24916     0.28926     0.20354     0.16642     0.29366     0.95595     0.21127     0.39415    0.091572      0.1017     0.17977     0.43305     0.61506
0.17748       0.866     0.19429     0.25016      0.2914     0.20484     0.16734     0.28425     0.96696     0.21347     0.39708    0.094035     0.10361     0.18096     0.42861     0.60919
0.17759     0.87294     0.19494     0.25249     0.28985     0.20455     0.16852     0.29972     0.95327     0.21262     0.40352    0.093054     0.10293     0.18211     0.43841     0.62338
0.17483     0.85966      0.1948      0.2534     0.29382     0.20719     0.17062     0.30306     0.96398     0.21369     0.40566     0.11111     0.10417     0.18229       0.457     0.61943
0.17864      0.8728      0.1963     0.25622     0.29592     0.20741     0.17242     0.31277     0.96526     0.21537     0.41298      0.0976     0.10441     0.18395      0.4443     0.63217
0.18401     0.88045     0.19843     0.25952     0.29933     0.21177     0.17381     0.29981     0.97045     0.21776     0.40653    0.098512     0.10572     0.18528     0.43658     0.63377
0.18109     0.89119     0.20074     0.25878     0.30081      0.2121      0.1759     0.30859     0.97485     0.21846     0.40889     0.09951       0.106     0.18511     0.45831     0.63889
0.18122     0.90571     0.20171     0.26175     0.30274     0.21463     0.17637     0.30586     0.99235      0.2189     0.40176    0.093305     0.10727     0.18793     0.45972      0.6431
0.18277     0.88454     0.19937     0.25879     0.29739     0.20851     0.17209     0.29509     0.98303     0.21481      0.4062     0.10954     0.10382     0.18471     0.45247     0.62773
0.18017     0.88967     0.19628     0.25283     0.28996      0.2034     0.16792     0.30616     0.96281     0.21011     0.39453    0.099851     0.10197     0.18207     0.43168     0.61607
0.17808      0.8704     0.19549     0.25272     0.28794     0.20128     0.16579     0.29785     0.95544     0.21002     0.41524     0.10067     0.10262     0.18066     0.43053     0.62364
0.17951     0.87932     0.19581     0.25205     0.28823     0.20262     0.16858     0.30878     0.95377      0.2104     0.40097     0.09674     0.10316     0.18244     0.44011     0.61995
0.17673      0.8684     0.19505     0.25188     0.29001     0.20335     0.16709     0.28579     0.95149     0.21037     0.40485    0.081403     0.10141     0.18185     0.43189     0.61806
0.17749     0.87541     0.19622     0.25271     0.29067     0.20262     0.16863      0.2944     0.96109     0.21034     0.39748    0.092089     0.10214     0.18259      0.4531     0.61449
0.17734     0.88887     0.19839     0.25757     0.29262      0.2065     0.16948     0.30127     0.96328     0.21423     0.39765    0.097571     0.10346     0.18252     0.44663     0.61851
0.18264     0.88209     0.19792     0.25797     0.29656     0.20874     0.17292     0.30814     0.98381     0.21508     0.40225    0.086709     0.10428      0.1839     0.43651     0.61715
0.18084     0.88808     0.20054     0.25875     0.29876     0.21063     0.17303     0.30133     0.98268     0.21499     0.40385     0.10412     0.10566      0.1854     0.44563     0.64331
0.1841     0.89817     0.20164     0.26147      0.3018     0.21147     0.17491     0.30664     0.97776     0.21688       0.405    0.091709     0.10603     0.18526     0.43295     0.64782
0.18019     0.88463     0.19901     0.25628     0.29069     0.20343     0.16879     0.29343     0.96636     0.21139     0.38292    0.089926     0.10463     0.18168     0.43767     0.63084
0.17874     0.87386     0.19607     0.25429     0.28832     0.20314     0.16608     0.29472      0.9707     0.21048     0.39785    0.090929     0.10203     0.18184     0.43382     0.61461
0.17796     0.86805     0.19701     0.25171     0.29037     0.20423     0.16833     0.30522     0.96268     0.21026      0.4124     0.09261     0.10421     0.18138     0.45584     0.62249
0.17535     0.88808     0.19625     0.25338     0.29044     0.20277     0.16858     0.30474     0.97345     0.21151     0.40891    0.091437     0.10267     0.18065     0.44094     0.62484
0.18073     0.86952     0.19718     0.25397     0.29306     0.20508     0.16956     0.29721     0.97756     0.21277     0.40001    0.095456     0.10314     0.18202     0.44141     0.61387
0.18044     0.88598     0.19794      0.2574     0.29514     0.20756     0.17136     0.30341     0.96251     0.21412     0.39575     0.10319     0.10468     0.18394     0.44258     0.61986
0.17922       0.892     0.19998     0.25948     0.29763     0.20921     0.17369     0.29717     0.97819     0.21645     0.41316    0.092297     0.10621      0.1845     0.43974     0.63024
0.18126     0.90524     0.20013     0.26042     0.29894     0.21121     0.17415     0.30645     0.99075     0.21772     0.40258     0.10445     0.10713     0.18554     0.44414     0.64809
0.18133     0.90441     0.20087     0.26239      0.3023     0.21452     0.17572     0.30794     0.98423      0.2187     0.40997     0.10023     0.10666      0.1878     0.44691     0.63504
0.18153     0.88728      0.1998     0.25923     0.29778     0.20949     0.17326     0.30047     0.97813     0.21466     0.39372     0.10437     0.10551     0.18472     0.43807     0.61401
0.18203     0.88173     0.19697     0.25437     0.29186     0.20586     0.16749      0.2859     0.97401      0.2126     0.39317    0.094611     0.10386     0.18195     0.42592       0.614
0.17543      0.8806     0.19587      0.2511     0.28923     0.20304     0.16565     0.28986     0.96323     0.21131     0.39722    0.085323     0.10373     0.18156     0.44779     0.62435
0.17881     0.87285     0.19599     0.25324     0.29003     0.20459     0.16793     0.30291     0.94738     0.21052     0.39302    0.098864     0.10315     0.18003     0.42671     0.61647
0.17823     0.87763     0.19789     0.25239      0.2913     0.20524      0.1687     0.29702     0.96848     0.21097     0.40202     0.10662     0.10278     0.18094     0.43633     0.63119
0.17518     0.89072     0.19733     0.25449     0.29295     0.20694     0.17021     0.29855     0.95857     0.21107     0.39863     0.10748     0.10409     0.18136     0.43209     0.62778
0.17985     0.88785     0.20026     0.25726     0.29773      0.2084     0.17278     0.30581     0.97392     0.21343     0.40311    0.097059     0.10292      0.1833      0.4436     0.62642
0.17868     0.88633     0.20009     0.25748     0.29935     0.21088     0.17303     0.30099     0.97446     0.21659     0.40248    0.095205     0.10513     0.18409     0.43758     0.64773
0.18112     0.88293     0.20067     0.25912     0.30273     0.21216     0.17561     0.31254     0.96599     0.21715     0.41038     0.10377     0.10659     0.18611     0.44808     0.62854
0.18321     0.90585     0.20298     0.26171     0.30461     0.21355      0.1766     0.31016      1.0065     0.21841     0.40631    0.095693     0.10595     0.18657     0.45746     0.63565
0.1831     0.88973     0.20031      0.2607     0.29894     0.20902     0.17088     0.31386     0.97789     0.21399      0.4164    0.097239     0.10499     0.18453     0.43655     0.61719
0.17946     0.86983     0.19722     0.25107     0.29148     0.20388     0.16803     0.28311     0.96586     0.21116     0.39408     0.10415     0.10343     0.18021     0.43292      0.6362
0.17729     0.86339     0.19513     0.25223     0.28946     0.20325     0.16686     0.28944     0.95824     0.20913     0.38854      0.1064     0.10361     0.18023      0.4419      0.6146
0.17794     0.87827      0.1968     0.25341     0.29255     0.20366     0.16679     0.30342     0.96175     0.21043     0.39864    0.094114     0.10384     0.18023      0.4354     0.62224
0.17837     0.86887     0.19628     0.25266     0.29311     0.20565     0.16945     0.29307     0.96441     0.20979     0.38173    0.090296     0.10289     0.18087     0.43561     0.61571
0.17908     0.87262      0.1957     0.25233     0.29436     0.20524      0.1712     0.30643     0.96662     0.21196     0.40356     0.10782     0.10367     0.18035     0.43444     0.61654
0.17923     0.88555     0.19721     0.25625      0.2957     0.20634     0.17195     0.29067     0.96207     0.21282     0.40025    0.089668     0.10399     0.18295     0.45091     0.62176
0.17616     0.88389     0.19902     0.25826     0.30026     0.20915     0.17416     0.30168     0.97258     0.21609     0.39742     0.10151     0.10474     0.18524      0.4413     0.63146
0.18029      0.8964     0.20017     0.25932      0.3015     0.21078     0.17489     0.31239     0.98004     0.21777      0.4111    0.097038     0.10649     0.18517      0.4409     0.63963
0.18005     0.89449      0.2017     0.26007     0.30564     0.21516     0.17692     0.30796     0.97471     0.21953     0.41609    0.087169     0.10619     0.18757     0.45131     0.62658
0.18189     0.89978     0.20135     0.26186     0.30233     0.21256      0.1748      0.3142     0.98561     0.21545     0.39978    0.092419     0.10518     0.18337      0.4548     0.63829
0.18125     0.86977     0.19821     0.25343      0.2943     0.20415     0.16828     0.29296     0.96567     0.21131       0.392    0.091002     0.10323     0.18111     0.43515     0.63194
0.17746     0.89432     0.19651      0.2521     0.29151     0.20259      0.1682     0.29513     0.95775     0.20879       0.392     0.10486     0.10171     0.17923     0.42523      0.6292
0.17755     0.87834      0.1951     0.25264     0.29027     0.20255     0.16889     0.29707     0.95722      0.2103     0.40892     0.10026     0.10275     0.17916     0.42676     0.61416
0.18061     0.87134     0.19686     0.25225     0.29036     0.20267     0.16645     0.30121     0.96137     0.21127     0.40908    0.093578     0.10293       0.181     0.41829     0.61748
0.17593     0.89126     0.19706     0.25301     0.29538     0.20388      0.1689     0.30875     0.97142     0.21013     0.41248    0.094955     0.10374     0.18026     0.42679     0.63087
0.18099     0.89578     0.19708     0.25453     0.29591     0.20674     0.17042     0.30595       0.978     0.21226     0.39226    0.086493     0.10516     0.18185     0.44441     0.61079
0.18165     0.88663     0.19914     0.25568     0.29775     0.20856     0.17332     0.30556     0.96575     0.21597     0.40726    0.081585     0.10511     0.18238     0.44107     0.64172
0.17918     0.88629     0.20043     0.25774      0.3019     0.21048     0.17494     0.29301     0.97585     0.21392     0.40407     0.10744     0.10649     0.18484     0.45117     0.65112
0.18341     0.89185     0.20156     0.25973     0.30439     0.21297     0.17631      0.3075     0.97837     0.21699      0.3995     0.10308     0.10721     0.18698     0.45714     0.63763
0.18711     0.89765     0.20152       0.263     0.30671     0.21518     0.17715     0.30294     0.98272     0.21751     0.41257    0.094917     0.10747     0.18518     0.44932     0.65077
0.18067     0.89405     0.19874      0.2563     0.29581     0.20787      0.1709     0.30682     0.96537     0.21212     0.40397    0.098567     0.10526     0.18244     0.44717     0.63855
0.17923     0.87586     0.19668     0.25428     0.29363     0.20342     0.16649     0.29378     0.97782     0.21156     0.40438      0.1023     0.10404      0.1819     0.42668     0.63188
0.17725     0.87453     0.19593     0.25289     0.29286     0.20454      0.1685     0.28516     0.96613      0.2122     0.39106     0.10507     0.10276     0.18032     0.44656     0.63748
0.17834     0.88267     0.19572     0.25434       0.294     0.20496     0.16857     0.31221     0.97362     0.21187     0.39753     0.10391     0.10456     0.18055     0.44485     0.62258
0.17733     0.89264     0.19714       0.254     0.29514     0.20554     0.17033     0.30516     0.96892     0.21353     0.40277    0.093573     0.10579      0.1822     0.44415     0.62404
0.1806     0.87384     0.19713     0.25508     0.29686     0.20736     0.17264     0.30871     0.97828     0.21431     0.39717     0.10512     0.10489     0.18219     0.44816     0.62817
0.18071     0.88235     0.19909     0.25796     0.29902     0.20921     0.17499     0.31405     0.98384     0.21609     0.39557     0.11193     0.10629     0.18366     0.43074     0.64305
0.17933     0.89704     0.19995     0.26137     0.30193     0.21229      0.1749     0.31543     0.96931     0.21863     0.40672     0.10133     0.10596     0.18455      0.4493     0.64217
0.1813      0.8818     0.20026     0.25956     0.30487     0.21341     0.17644     0.31984     0.98084     0.21925     0.41254     0.10792     0.10679      0.1861     0.44117     0.64897
0.18197     0.89016     0.20109     0.26225     0.30376     0.21208     0.17696     0.31439     0.98331     0.21776      0.4083     0.10269     0.10452     0.18366     0.44104     0.65743
0.17681     0.87851     0.19671     0.25355     0.29132     0.20473     0.16844     0.30816     0.96998     0.21516     0.39724     0.10761     0.10357     0.18145     0.43058     0.65727
0.17882     0.89085     0.19613     0.25196     0.29047     0.20328     0.16756     0.28916     0.96369     0.21216     0.40449    0.084864     0.10258     0.18014      0.4226     0.63383
0.17555     0.87617     0.19438     0.25306     0.29143     0.20384     0.16666     0.28893     0.96658     0.21124     0.40315     0.10317     0.10332     0.18129     0.43122     0.61325
0.1762     0.88467     0.19539     0.25318     0.29191     0.20323     0.16704      0.2909     0.96192     0.21261     0.39135    0.097554     0.10314     0.18227     0.43167     0.63586
0.17833      0.8745     0.19543     0.25437     0.29219     0.20512     0.16799     0.30815     0.96465     0.21326     0.39107     0.10718     0.10462     0.18187     0.44708      0.6278
0.17855      0.8714     0.19647     0.25414     0.29462     0.20665     0.17099     0.30103     0.98356      0.2165     0.39271     0.11967     0.10508     0.18305     0.43113     0.63853
0.17982     0.86903     0.19802     0.25674     0.29931     0.20836     0.17341      0.2861     0.97702     0.21695     0.39658     0.10502     0.10577     0.18409     0.45082     0.63402
0.17751     0.88577     0.19978     0.25702     0.29903     0.20893     0.17428     0.31826      0.9879     0.21701     0.40529     0.10118     0.10522     0.18669     0.44887     0.64838
0.17658     0.89052     0.20225     0.26195      0.3031      0.2118     0.17588     0.31884     0.97877     0.21982     0.40951    0.099214     0.10629      0.1859     0.46415      0.6538
0.18155     0.87584     0.20083     0.26088      0.3012     0.21071     0.17578     0.30248     0.99252     0.21747     0.40171     0.11754     0.10662      0.1855     0.46321     0.63601
0.17719     0.87979     0.19818     0.25411     0.29483     0.20355     0.16817     0.29409     0.96796     0.21377     0.38513    0.088881     0.10344     0.18342     0.43652     0.64085
0.17693     0.85667     0.19359     0.25048     0.29239     0.20199     0.16759     0.31583     0.96712     0.21111     0.39691     0.10121     0.10314     0.17953     0.44577     0.63796
0.17811     0.86171     0.19536     0.24975     0.29101     0.20221     0.16677     0.28515     0.94584     0.21132     0.41056     0.10237     0.10388     0.18099     0.45022     0.62541
0.17838     0.86179     0.19578     0.25166     0.29236     0.20349      0.1673     0.30823     0.96573     0.21152     0.40529      0.1034      0.1037     0.18152     0.43494     0.62967
0.17681     0.86891      0.1944     0.25149     0.29308     0.20379     0.16891     0.30414      0.9699     0.21278      0.4038     0.10058     0.10294     0.18243      0.4496     0.64263
0.17788     0.86244     0.19648     0.25302     0.29583     0.20614     0.17254     0.29572     0.97564     0.21622     0.40144    0.094149     0.10411     0.18298      0.4592     0.63277
0.18131       0.885     0.19738     0.25548     0.29889     0.20803     0.17261     0.30493     0.99353     0.21623     0.40593      0.1073     0.10383     0.18437     0.43567     0.63779
0.17729     0.87328     0.19796     0.25752     0.30143     0.20986     0.17375      0.2996     0.98596     0.21799     0.39937     0.10969     0.10442     0.18752     0.43578      0.6648
0.17824     0.88586     0.20038      0.2597     0.30322     0.21037     0.17507      0.2999     0.98153     0.22055     0.40805    0.099337      0.1086     0.18679     0.45926     0.65481
0.18219     0.89438     0.20167     0.26112     0.30565     0.21193     0.17687     0.31964     0.99903      0.2185     0.41155     0.10388     0.10574     0.18686     0.44854     0.65723
0.1809     0.87176     0.19707     0.25256     0.29452     0.20351     0.16865     0.29546     0.98231     0.21093     0.40758     0.10534     0.10507     0.18278     0.43807     0.64323
0.17632     0.86191      0.1959     0.24949     0.29195     0.20093     0.16635      0.2925      0.9522     0.21156     0.41752    0.099309     0.10266     0.18289     0.43635     0.63372
0.17799     0.86026     0.19549     0.24962     0.29088     0.20148     0.16742     0.28785     0.95753     0.21005      0.4046     0.09793     0.10272     0.18339     0.43434     0.62381
0.17619     0.85935     0.19487     0.25037     0.29264     0.20217      0.1667     0.28454     0.95244     0.21138      0.4068     0.09485     0.10272     0.18301     0.45494     0.63473
0.17445     0.84577     0.19446     0.25045     0.29205     0.20426      0.1678     0.30524     0.95588     0.21158     0.40443    0.093029     0.10344     0.18238      0.4373     0.63875
0.18058     0.85926      0.1949     0.25147     0.29637     0.20465     0.17122     0.30847     0.95958     0.21329     0.39893     0.10581     0.10405     0.18388     0.44117     0.63029
0.17844     0.86475     0.19602     0.25458     0.29875     0.20784     0.17204     0.29943     0.96448     0.21571     0.40188     0.10455     0.10496     0.18585     0.43898     0.65868
0.17723     0.87082     0.19682     0.25531     0.30022     0.21036     0.17362     0.30733     0.97931     0.21722     0.39946     0.10328     0.10685     0.18695     0.43908     0.65291
0.17858      0.8958     0.19857     0.25822     0.30283     0.20943      0.1753     0.30371     0.98217     0.22138      0.4152     0.10803     0.10812     0.18633     0.45771     0.65521
0.18335     0.85568     0.19889     0.25861     0.30078     0.20802       0.175     0.29539     0.98004      0.2175     0.41684    0.098296     0.10431     0.18545     0.44577     0.64192
0.17644     0.85047     0.19809     0.25029     0.29413     0.20221     0.16909     0.30204     0.96858     0.21365     0.40008     0.11037     0.10232     0.18312     0.44126     0.63934
0.17203      0.8461      0.1941      0.2483     0.29151     0.20007     0.16621     0.29293     0.95534     0.21183     0.39126    0.096202     0.10381     0.18097     0.42858     0.63778
0.17382     0.86212     0.19448     0.24929     0.29197     0.20382     0.16785     0.30584     0.96414     0.21203     0.39353     0.11634     0.10301     0.18233     0.45234     0.64311
0.17655     0.85505     0.19283     0.25016     0.29293     0.20192     0.16843     0.29558     0.96766      0.2121     0.39863     0.10253     0.10373     0.18425     0.43681      0.6368
0.17629     0.86925     0.19433     0.25154      0.2941     0.20386     0.16984     0.30051     0.96476     0.21447     0.39262      0.1033      0.1042     0.18281     0.42628     0.65136
0.17912     0.85756     0.19556     0.25377     0.29742      0.2063     0.17275     0.30469     0.97677     0.21499     0.39913    0.096865     0.10599     0.18588     0.45001      0.6523
0.17686     0.87621     0.19756     0.25513     0.29989     0.20932     0.17259     0.30521     0.97097     0.21659     0.41744    0.095016     0.10598     0.18455     0.45676     0.65622
0.18081     0.87071     0.19825     0.25806       0.303     0.21026     0.17566     0.30803     0.99503     0.21974     0.39483    0.096583     0.10713     0.18729     0.45454     0.65772
0.17946     0.88115     0.19947     0.25933     0.30569     0.21326     0.17738     0.31101     0.98359     0.22006     0.40993     0.10051     0.10854     0.18864     0.46201     0.66986
0.17781     0.88382     0.19851     0.25578     0.30064      0.2097      0.1726     0.30579     0.98321     0.21734     0.41826    0.097583     0.10428     0.18327     0.44035     0.64756
0.17855     0.85742     0.19565     0.25214     0.29468     0.20316     0.16891     0.30443     0.96452     0.21443     0.39561    0.094669     0.10445      0.1821     0.44135     0.65489
0.1738     0.83475     0.19496     0.24819     0.29221     0.20029     0.16621     0.30683     0.95919     0.21118     0.39952     0.09399     0.10355     0.18215     0.42901     0.62865
0.17736     0.85112     0.19521     0.24934     0.29303     0.20187     0.16711     0.30094     0.96675     0.21249      0.4148    0.089029      0.1021     0.18093     0.43903     0.63228
0.17354     0.86468      0.1933     0.24857     0.29197     0.20151     0.16722     0.28637     0.96686     0.21142     0.40467    0.089001     0.10248     0.18165     0.44661     0.62377
0.17593      0.8385     0.19358     0.25047     0.29483     0.20251     0.16933     0.30004     0.97069     0.21319     0.40265    0.092776      0.1055     0.18252      0.4343     0.65289
0.17731     0.85569      0.1948     0.25276     0.29744     0.20543     0.17129     0.30364     0.96895     0.21458     0.41057     0.10989     0.10468     0.18397     0.44008     0.63306
0.1753     0.85626     0.19581     0.25395     0.30039     0.20797     0.17293     0.30193     0.97843     0.21727     0.40328     0.11119     0.10573     0.18598     0.44047     0.65065
0.17733     0.86302     0.19837     0.25506     0.30399     0.20872     0.17371     0.30119     0.98104     0.21878     0.40941     0.10026     0.10613     0.18651     0.45293     0.66382
0.18068     0.86069     0.20042     0.25901      0.3045     0.21126     0.17712     0.30995     0.98856     0.22021     0.42355     0.10337     0.10769     0.18734     0.45651     0.65756
0.17958     0.87061     0.19847     0.25765     0.30426     0.20916       0.174     0.30368     0.97497     0.21536     0.39749    0.091063       0.104     0.18495     0.45542     0.64242
0.17739     0.86157     0.19533     0.24987     0.29387     0.20179     0.16867     0.29681     0.95288     0.21366     0.38345    0.094833     0.10276     0.18179      0.4387     0.65219
0.1743     0.85181     0.19487     0.24742     0.28997     0.20094     0.16751     0.29645     0.95657     0.21023     0.40568    0.092947      0.1027      0.1819     0.43207     0.63055
0.1732      0.8417     0.19306     0.24773     0.29251     0.19961     0.16811     0.29155     0.96166     0.21127      0.3921     0.10038      0.1029     0.18191     0.43392     0.63472
0.1722     0.84682     0.19204     0.24828     0.29241     0.20095     0.16831     0.29987     0.95975     0.21079     0.40214    0.093691     0.10196     0.18204      0.4432     0.64617
0.17614     0.85352      0.1944     0.25027     0.29495     0.20309     0.16899      0.2857     0.97509      0.2124     0.40096     0.11403      0.1046      0.1823     0.44925     0.64857
0.17336      0.8591     0.19361      0.2528     0.29593     0.20494     0.17151     0.30103     0.99007     0.21461     0.39374     0.10252     0.10573     0.18296     0.44212     0.63729
0.17691     0.85945     0.19562     0.25306     0.29964     0.20629     0.17328     0.31715     0.97267     0.21454     0.40801     0.10596     0.10476     0.18351     0.45858      0.6634
0.17606     0.85561     0.19681     0.25324     0.30109     0.20803     0.17464     0.30641     0.98226     0.21841     0.40933     0.10169     0.10638     0.18598     0.44549     0.66496
0.17596     0.86508     0.19825     0.25727     0.30304     0.20896     0.17798       0.291     0.97863     0.21894     0.40289    0.096969     0.10639     0.18785     0.46031     0.65629
0.17936     0.87542     0.20024      0.2581     0.30235     0.21023     0.17525     0.31762     0.96919     0.21638     0.42218    0.090802     0.10394     0.18497     0.44768     0.65056
0.17552     0.87093     0.19536     0.24962     0.29358      0.2018     0.16761     0.28442     0.95779     0.21116      0.4028     0.10573     0.10252     0.18166     0.44339     0.63544
0.17505     0.85857     0.19348     0.24823     0.29262     0.19966     0.16725     0.29976     0.94897     0.20793     0.39739    0.097609     0.10212     0.18089      0.4318     0.62709
0.17697     0.85039     0.19381     0.24798     0.28997      0.2015     0.16801     0.30449     0.95474      0.2106     0.39947     0.10386     0.10196     0.18137     0.42825     0.62506
0.17271     0.83488     0.19279     0.24757     0.29193       0.199      0.1682     0.28695      0.9723     0.21202     0.40022    0.098084     0.10176     0.18138     0.43011     0.63016
0.17538     0.82967     0.19418     0.24863     0.29221     0.20188     0.16851     0.28822     0.96752     0.21131      0.3999    0.095597     0.10352     0.18157     0.43883     0.64669
0.17489     0.86212     0.19418     0.24903     0.29388     0.20535     0.17009     0.29402     0.95901     0.21173     0.41275       0.104     0.10414     0.18204     0.43626     0.65607
0.17622     0.86515     0.19464      0.2518      0.2955     0.20559     0.17116     0.29626     0.97058     0.21251     0.40228     0.10826     0.10424     0.18415     0.44448     0.65049
0.17791      0.8687      0.1976     0.25309     0.29968     0.20659     0.17441     0.30987     0.97322     0.21535     0.39198    0.096902     0.10546      0.1859     0.43352     0.65024
0.17829     0.86839     0.19655     0.25558     0.30213     0.20905     0.17525      0.3133     0.97596     0.21726     0.40378    0.096624     0.10683     0.18496     0.45933     0.65433
0.17709     0.86281     0.19814     0.25211     0.29679     0.20417     0.16985     0.29985     0.96904     0.21314     0.38766    0.099409     0.10397     0.18239     0.44786     0.64394
0.17192     0.84904     0.19459     0.24859     0.29018     0.20022     0.16559     0.29561     0.95415     0.21113     0.40352     0.09048     0.10331     0.18113      0.4309     0.61405
0.17353     0.84936      0.1937     0.24644      0.2898     0.19882     0.16676     0.28612     0.95955      0.2083     0.39667    0.089836     0.10275        0.18      0.4216     0.63405
0.17518     0.86207     0.19256     0.24652     0.29148     0.19986     0.16611     0.30058     0.95832     0.21032     0.39805     0.10546     0.10233     0.18128     0.41565     0.62973
0.17171     0.83575     0.19341     0.24711     0.29266     0.20169     0.16697     0.28529     0.96999     0.21084     0.39403    0.095733     0.10319     0.18231     0.43845     0.61673
0.17493     0.84994     0.19358     0.25053     0.29549     0.20266     0.16973     0.30736     0.96011     0.21326     0.39578    0.096874     0.10456     0.18205     0.43643     0.64743
0.17679     0.85551     0.19496     0.25102     0.29631     0.20461     0.17236     0.30582     0.96408     0.21487       0.408     0.10376     0.10479     0.18293     0.44419     0.64433
0.17703     0.85741     0.19666      0.2516     0.29864      0.2076     0.17318     0.30123     0.97315     0.21539     0.39991      0.1085     0.10503     0.18441     0.45317     0.65189
0.17689     0.86074     0.19742     0.25544     0.30163     0.20736     0.17427      0.3106     0.97047       0.216     0.40038     0.10751     0.10604      0.1877     0.44452     0.65347
0.17967     0.86283     0.19875     0.25623      0.3028     0.20962     0.17594     0.29049     0.98027     0.21725     0.39917    0.098817     0.10829     0.18544     0.43986     0.66136
0.17904     0.87034     0.19896     0.25344     0.29905     0.20595      0.1719      0.3152     0.97377      0.2133     0.40407     0.11239      0.1036     0.18478     0.44483     0.64583
0.17489     0.86233     0.19512     0.24881     0.29179     0.20111     0.16743     0.29832     0.97879     0.21049     0.41194     0.11792      0.1035      0.1818     0.44274     0.63194
0.17708     0.85494     0.19227     0.24655     0.28859     0.19851     0.16531     0.29681     0.96289      0.2104     0.39599      0.1061     0.10268     0.18055     0.43947     0.62852
0.17459     0.83381      0.1932     0.24681     0.29348     0.20127     0.16854     0.29225     0.96794     0.20928     0.38293    0.094616     0.10363     0.18152     0.42892     0.62413
0.17386     0.86162     0.19285     0.24762     0.29248     0.20004     0.16672     0.29007     0.96394     0.21014     0.39426     0.10852     0.10407     0.18176     0.43967     0.64033
0.17388     0.84673     0.19209     0.24863     0.29369     0.20198     0.17002      0.2998     0.96583     0.21313      0.4021    0.092811     0.10334     0.18213      0.4369      0.6495
0.17629     0.85785     0.19535     0.24973     0.29427     0.20337     0.16882     0.28975     0.96373     0.21291      0.3803     0.10797     0.10465     0.18466     0.46831     0.64696
0.17853     0.86279     0.19696     0.25132     0.29826     0.20571      0.1731     0.29748     0.97593     0.21667     0.40173    0.099533     0.10695     0.18507     0.44124     0.63805
0.17789     0.85086     0.19719     0.25442     0.30068     0.20767     0.17376     0.30124     0.97677     0.21676     0.39986    0.099182     0.10612     0.18565     0.43621     0.65325
0.17916     0.85332     0.19753     0.25686     0.30281      0.2095      0.1759      0.3058      1.0007     0.21825     0.41761     0.11463      0.1068     0.18776     0.42626     0.67209
0.17986     0.86225      0.1995     0.25611     0.30068      0.2083     0.17461     0.29343     0.98699     0.21622     0.40389     0.11456     0.10636     0.18764     0.44591     0.64878
0.17775     0.86057     0.19409     0.25107      0.2915     0.20058     0.16729     0.30227     0.96331     0.21172     0.39475     0.10417     0.10275     0.18296     0.43235     0.62885
0.17501     0.84734      0.1935     0.24766     0.28759     0.19644      0.1667     0.28327     0.95787     0.21085     0.37726    0.093935     0.10372     0.18021     0.43901     0.63548
0.17463     0.85272     0.19269     0.24914      0.2902     0.19959     0.16568     0.28044     0.95933     0.21072     0.40134     0.09433     0.10264      0.1812     0.44614     0.62421
0.17373     0.84124     0.19357     0.24775     0.29168     0.20124     0.16766     0.29323     0.95892     0.21087     0.39875    0.099915     0.10438     0.18217      0.4504     0.63494
0.1765     0.83479     0.19347     0.25034      0.2924     0.20252      0.1682     0.28958     0.93983     0.21362     0.39025    0.091589     0.10416     0.18287     0.45257     0.63009
0.17383     0.84321     0.19453     0.25147     0.29475     0.20356     0.17035      0.3053     0.97127     0.21548     0.40399     0.10806     0.10497     0.18415     0.44337     0.65629
0.17667     0.85126     0.19614     0.25451     0.29822     0.20514     0.17252     0.29218     0.97938     0.21599     0.40438     0.10735     0.10465      0.1847     0.44981     0.66786
0.17809     0.86578     0.19538     0.25606      0.3006     0.20763     0.17353     0.30827     0.96461     0.21691     0.40333    0.095231     0.10708     0.18729     0.44195     0.65606
0.17806     0.86751     0.19704     0.25837     0.30148      0.2084     0.17622      0.3057     0.97162     0.21735     0.39605    0.095986     0.10667     0.18775     0.45167     0.65283
0.18114     0.87687     0.19881     0.25797      0.3037     0.20771     0.17532     0.30507      0.9889     0.21801     0.41687     0.11459      0.1072     0.18657     0.46282     0.65198
0.17723     0.86278      0.1966     0.25152     0.29483     0.20184     0.16803     0.29771     0.96641     0.21239     0.40147    0.093879     0.10457     0.18508     0.44651      0.6505
0.17566     0.85731     0.19559     0.25058     0.29007     0.19963     0.16577     0.30205     0.95848     0.21179     0.39779     0.10034      0.1039     0.18335     0.43016     0.63291
0.17637     0.85748     0.19454     0.25006     0.29134     0.19943     0.16784     0.28917     0.94702      0.2117     0.39212     0.10206     0.10345     0.18093     0.44065     0.64371
0.17364     0.84396     0.19366     0.25015     0.29055     0.19906     0.16762     0.28463     0.94746     0.21205     0.39087    0.097422     0.10342     0.18317     0.43168     0.64687
0.17608     0.84949     0.19397      0.2506     0.29246     0.20144     0.16874     0.30409     0.96617      0.2118     0.40046     0.10253     0.10467     0.18136     0.43495     0.64523
0.17858     0.84821     0.19484     0.25316     0.29472     0.20226     0.16989     0.28685     0.96593     0.21306     0.40292     0.10475     0.10468     0.18286     0.44981      0.6438
0.17857     0.85533     0.19688     0.25427       0.297     0.20304     0.17138     0.31296     0.96764     0.21661     0.39801     0.09901     0.10488     0.18654     0.45033      0.6441
0.1778     0.87044     0.19736     0.25368     0.29947     0.20633     0.17239     0.30135      0.9685     0.21728     0.39523    0.096479     0.10712     0.18622     0.44568     0.66181
0.17718     0.86757     0.19799     0.25757     0.30247      0.2071     0.17466      0.3104     0.97819     0.21943     0.39614    0.095756     0.10706     0.18771     0.45362     0.66087
0.17865     0.87825     0.19996       0.258     0.30292     0.20787     0.17615      0.3056     0.98581      0.2177     0.40414     0.10756     0.10711     0.18664     0.45284     0.65876
0.17797      0.8646     0.19504     0.25279     0.29429     0.20234     0.16832     0.29965     0.96022     0.21367     0.40174     0.10012       0.104     0.18406     0.42908     0.65097
0.17681     0.85556     0.19501     0.25017     0.29183     0.20108     0.16744     0.28522     0.95334     0.21184     0.40199     0.10337     0.10344     0.18226     0.44849     0.66146
0.17464     0.84695     0.19334     0.24972     0.29261      0.2009      0.1687      0.2963     0.96733     0.21278     0.39186     0.10463     0.10363     0.18088     0.42145      0.6411
0.17439     0.86012     0.19332     0.25071     0.29219     0.20188     0.16854     0.29101      0.9715     0.21156     0.40304     0.11449     0.10416     0.18155     0.43362     0.63326
0.17564     0.85961     0.19436     0.25081     0.29304     0.20171      0.1693     0.29552     0.96405     0.21437     0.40413     0.10901     0.10403     0.18314     0.44924       0.653
0.1746     0.84362     0.19417     0.25411     0.29489     0.20461     0.17049     0.30268      0.9745     0.21441      0.3938    0.095655     0.10481     0.18451     0.44169     0.65377
0.17516     0.86563     0.19674     0.25559     0.29992     0.20582     0.17282     0.29763     0.97257     0.21645     0.40807     0.11162     0.10595     0.18411     0.44494     0.65483
0.17826     0.87469     0.19799      0.2568      0.2991     0.20741     0.17495     0.30118       0.981     0.21811     0.41155     0.10503     0.10576     0.18635     0.45099     0.64713
0.1801     0.86678     0.19886     0.25977     0.30451     0.20894     0.17519     0.30559     0.98546     0.22156     0.40267    0.096405     0.10773     0.18782     0.43798     0.66086
0.17954     0.87237     0.20048     0.26097     0.30598     0.21051     0.17846     0.30573     0.99676     0.22012     0.39687     0.10804     0.10696     0.18819     0.45503     0.66223
0.17799     0.86263     0.19845     0.25406     0.29706     0.20338     0.17171     0.30323     0.96624     0.21413     0.39987    0.098282     0.10611     0.18453     0.43439     0.64814
0.17628     0.85107     0.19362     0.25082     0.29172     0.19973     0.16929     0.28746     0.96964     0.21155     0.41846     0.11124     0.10301      0.1816     0.43755     0.64035
0.17685     0.85167     0.19393     0.25195     0.29299     0.20132     0.16732     0.30378     0.96657       0.212     0.39769      0.1016      0.1042      0.1817     0.43664     0.65042
0.17756     0.85473     0.19495     0.25178     0.29305     0.20164      0.1673     0.29477     0.95902      0.2117     0.40164    0.096915     0.10374     0.18066     0.44389     0.65007
0.17737     0.85968     0.19448     0.25206     0.29372     0.20198     0.16805     0.29999      0.9573     0.21246     0.41531     0.10474     0.10542     0.18335      0.4383      0.6369
0.17523     0.86113     0.19487     0.25271     0.29643     0.20569     0.17028     0.29978     0.96765     0.21415     0.40118     0.10529     0.10624     0.18531     0.45079     0.64702
0.1783     0.86786     0.19642     0.25547     0.30057     0.20783     0.17339     0.28733     0.96531     0.21611     0.40473      0.1047     0.10546     0.18498     0.44979     0.64485
0.17847     0.88435     0.19842     0.25728     0.30003     0.20808     0.17416      0.2944     0.98904     0.21716     0.40434     0.10023     0.10706     0.18704     0.45707     0.66497
0.18167     0.88177     0.20055     0.25843     0.30219      0.2084     0.17686     0.31684     0.98997     0.21939     0.40674     0.10875     0.10713     0.18801     0.45288     0.66111
0.18073     0.88323     0.20219     0.26093     0.30624     0.21131     0.17829      0.2996     0.99943      0.2222     0.41731    0.094309     0.10739       0.189     0.46882     0.63899
0.17778     0.87774     0.20132     0.25862     0.30231     0.20736     0.17352     0.31439     0.97309     0.21577     0.40347     0.10173     0.10715     0.18713     0.43754     0.63907
0.17847     0.87047     0.19764     0.25246     0.29549     0.20294     0.16932     0.29003     0.96436     0.21487     0.39488     0.10071     0.10525     0.18362     0.44526     0.65352
0.17641      0.8676     0.19572     0.25163     0.29262     0.20084     0.16825     0.29239     0.96678     0.21292     0.40507     0.11037     0.10498     0.18212     0.43768     0.62798
0.17529     0.87183     0.19514     0.25376     0.29319      0.2032     0.16982     0.29097     0.96061     0.21299     0.39606    0.099896     0.10451     0.18173     0.43757      0.6521
0.17655     0.86236     0.19495     0.25272     0.29505      0.2023     0.16993     0.29772     0.97224      0.2123     0.40923     0.10055     0.10339     0.18211     0.44871     0.65022
0.17645     0.86606      0.1979     0.25453      0.2955      0.2044     0.17055     0.29097       0.978     0.21554     0.39792    0.094869     0.10448     0.18367     0.44293     0.64741
0.17793     0.87727     0.19716     0.25609     0.30018     0.20561     0.17368     0.30729     0.96987     0.21793     0.40167     0.10676     0.10461     0.18516      0.4538     0.65016
0.177     0.87269     0.19842     0.25786     0.30111      0.2086     0.17352     0.31448     0.98569     0.21642     0.40768    0.095103      0.1059     0.18735     0.45722     0.65737
0.1803     0.87297     0.20155     0.26031     0.30183     0.21046     0.17629     0.30616      0.9858     0.21973     0.40269     0.09827     0.10594     0.18795     0.44523     0.66085
0.18087     0.89577     0.20172     0.26131     0.30538     0.21182     0.17764     0.31129     0.99153     0.22077     0.41711     0.10832     0.10877     0.18955     0.45467     0.66109
0.18382     0.88465     0.20334     0.26338      0.3087     0.21402      0.1794      0.3262       0.988     0.22141     0.41975      0.1053     0.10769      0.1897     0.45706     0.66761
0.18086     0.88523      0.1984      0.2581     0.29872     0.20626     0.17093     0.29931     0.98057     0.21531      0.4148     0.10036     0.10504     0.18638     0.44101     0.64485
0.17909     0.87656     0.19747     0.25496     0.29463     0.20212     0.16959     0.29917     0.96081     0.21284     0.41077     0.11115     0.10501     0.18259     0.43098     0.64764
0.17599     0.87038     0.19698     0.25267     0.29267     0.20227     0.16767     0.30064     0.96068     0.21392     0.39682       0.095     0.10357     0.18359       0.446     0.64261
0.17757     0.86788     0.19697     0.25348     0.29481     0.20222     0.16956     0.30231     0.96649     0.21282      0.3961     0.09036     0.10455     0.18405     0.44795     0.63636
0.1766     0.86736     0.19687     0.25213       0.295     0.20424     0.17127     0.29959     0.97319     0.21424     0.41122    0.092383     0.10505     0.18369     0.43566     0.63907
0.18012     0.87855      0.1977     0.25523     0.29997      0.2064     0.17188      0.3027     0.97853     0.21548     0.41135    0.093908     0.10558     0.18386     0.44504     0.66847
0.18212     0.88635     0.19943     0.25634     0.30194     0.20804     0.17223     0.30715     0.98199     0.21632     0.39917    0.094638     0.10636     0.18553     0.44882     0.65066
0.18091     0.88675     0.20012      0.2595      0.3035     0.20966     0.17483     0.31541     0.98663      0.2179     0.41312     0.12142     0.10693     0.18733     0.45585     0.66265
0.18464     0.89404     0.20114     0.26218       0.305     0.21103     0.17711     0.31817     0.97244     0.22138     0.41237     0.10567     0.10831     0.18928     0.44778     0.65099
0.18165     0.90231     0.20364     0.26312     0.30664     0.21303      0.1787     0.30907     0.98445     0.22149     0.39913     0.10185     0.10885     0.18976     0.45339     0.66223
0.18125     0.90094     0.20407     0.26396     0.30593     0.21458     0.17651     0.31371     0.99453     0.21824     0.40067     0.10684     0.10789     0.18831     0.46489     0.65342
0.18151     0.89668     0.20078     0.25768       0.298     0.20687     0.17159     0.30399     0.96973     0.21624     0.39361     0.10447     0.10495     0.18414     0.43674     0.64209
0.17856     0.88498     0.19925     0.25413     0.29511     0.20294     0.16908     0.30263     0.96118       0.213     0.39825     0.10662     0.10474     0.18416     0.44328     0.64666
0.17756     0.86468     0.19746     0.25436     0.29467     0.20331     0.16839     0.30475     0.96241     0.21329      0.4041    0.094831     0.10448     0.18338     0.45348     0.65195
0.17894     0.88451     0.19755     0.25424     0.29476     0.20364     0.17015     0.30161     0.97789     0.21326     0.39699    0.093208     0.10459     0.18417      0.4268     0.63346
0.17796     0.88566     0.19787     0.25646     0.29661     0.20516     0.17007      0.3113     0.96141     0.21525      0.3983     0.10778     0.10421     0.18541     0.43974      0.6415
0.17731     0.87953     0.19911     0.25873     0.29996     0.20632     0.17323     0.30212     0.97743     0.21434     0.39688    0.095238     0.10521     0.18598     0.44438     0.64032
0.18145     0.89851     0.20021     0.26096      0.3019     0.20866     0.17419     0.30418     0.96286     0.21719     0.41057     0.11046     0.10583      0.1884     0.45618     0.66993
0.18076     0.88343     0.20268     0.26277     0.30621     0.21243     0.17534     0.31845     0.99368      0.2199     0.41398     0.10322     0.10748     0.18773      0.4479     0.67082
0.1805     0.88762     0.20133     0.26402     0.30722     0.21483     0.17778     0.31488     0.98677     0.22314     0.40593    0.099685     0.10759     0.18976     0.46718     0.67286
0.18089     0.90949     0.20128     0.26694     0.31057     0.21643     0.18178     0.29476     0.98277     0.22542     0.40619     0.10709     0.11029     0.19161     0.46447     0.66318
0.18229     0.89807     0.20339      0.2664     0.30856     0.21287     0.17805     0.30859     0.99143     0.22197     0.40738     0.09973     0.10806     0.18762     0.44414     0.64995
0.18313     0.88265      0.2001     0.26039      0.3018     0.20797     0.17173     0.30835     0.97774     0.21883     0.41062    0.099917     0.10642     0.18534     0.45821      0.6503
0.17912     0.89197     0.19927     0.25786     0.29945     0.20633     0.17243     0.30394      0.9799      0.2176     0.39185     0.09888       0.105     0.18478      0.4419     0.63926
0.17826     0.88077     0.19915     0.26131     0.30067     0.20727     0.17278     0.29777     0.97941     0.21833     0.40599     0.10042     0.10503     0.18481     0.45684     0.65838
0.18004     0.88953     0.19731     0.26057     0.30014     0.20864     0.17352     0.30647     0.95946     0.21905      0.3995      0.1057     0.10539     0.18587     0.45591     0.64792
0.18019     0.89479     0.19726     0.26025     0.30374     0.21151     0.17298       0.305     0.98176      0.2211     0.41853    0.092202     0.10725     0.18677     0.44578     0.64556
0.18049     0.89582         0.2     0.26438     0.30692     0.21267     0.17669     0.30669     0.97994     0.22297     0.40727     0.10318     0.10682     0.18728     0.45467     0.65136
0.17929     0.90397     0.20079     0.26635      0.3083     0.21372     0.17656     0.30731     0.99129     0.22415     0.40776    0.094176     0.10832     0.19007      0.4552     0.65258
0.18225      0.8977     0.20212     0.26735     0.31101     0.21662     0.17995     0.31345     0.98852     0.22537     0.41103     0.10664     0.10689     0.19038     0.45532     0.66712
0.18257      0.9066     0.20309     0.27046     0.31245     0.21995      0.1815     0.30902      0.9988     0.22654     0.41742     0.10543     0.10828     0.19146     0.46035     0.66924
0.18319     0.89079     0.20209     0.26887     0.31073     0.21585     0.17871     0.32088     0.99297     0.22427      0.4133      0.1057     0.10792      0.1882     0.45864     0.67103
0.18023     0.90097     0.20089     0.26129     0.30354     0.21093     0.17304       0.317     0.97186      0.2195     0.40265    0.095137     0.10432     0.18775     0.45688     0.63902
0.18119     0.88304     0.19858     0.25927     0.30095     0.20864     0.17218     0.28287     0.96797     0.21852     0.41801    0.097376     0.10405     0.18583     0.44361     0.64681
0.17969     0.88434     0.19867     0.25912     0.30146     0.20893     0.17223     0.30281      0.9722     0.21777     0.40095     0.10182     0.10575     0.18416     0.45631     0.65144
0.17738     0.89061     0.19579     0.25988     0.30089      0.2096     0.17368     0.30821     0.96531     0.21794     0.40665     0.10758     0.10604     0.18494     0.43878     0.64977
0.17549     0.88559     0.19941     0.26071     0.30361     0.21093     0.17471     0.29227      0.9716     0.21948     0.41493     0.10299      0.1048     0.18688     0.43751     0.64379
0.18014     0.87328     0.19945      0.2617     0.30576     0.21251     0.17392     0.29633      0.9848      0.2206     0.41107     0.10502     0.10683     0.18803     0.44675      0.6645
0.18074     0.89227     0.19877     0.26165     0.30771     0.21597     0.17662     0.32102      0.9936     0.22195     0.41404      0.1125     0.10698     0.18883     0.45239     0.64816
0.18167      0.8969     0.20165      0.2644     0.30965     0.21447      0.1793     0.30811     0.97191     0.22236      0.4075    0.096235     0.10775     0.18818     0.45805     0.66647
0.1803      0.8946     0.20207     0.26558      0.3124     0.21709     0.18074     0.31755     0.98259     0.22433     0.41965    0.096261     0.11029     0.19124     0.45788     0.66839
0.18256     0.91021     0.20416       0.267     0.31515     0.21886     0.18264     0.31596     0.99213     0.22415      0.4112     0.11555     0.10864     0.19002     0.45764     0.67521
0.18027     0.89315     0.20066     0.26091     0.30409      0.2112     0.17345     0.30796     0.98995     0.21838     0.41619     0.10676     0.10614     0.18768     0.42777     0.65667
0.17994     0.89727     0.19747     0.25652     0.29815     0.20684     0.17035     0.30681     0.98723     0.21514     0.39742    0.083916     0.10502      0.1863      0.4504     0.65202
0.17741     0.87721     0.19624     0.25556     0.29827     0.20496     0.17021      0.2993     0.96354     0.21416     0.38187    0.094502     0.10443     0.18407       0.437     0.65933
0.18006     0.87927     0.19567     0.25307     0.29863     0.20576     0.16969     0.30121      0.9639     0.21565     0.40254     0.10052      0.1056     0.18545      0.4315     0.64688
0.17608     0.89517     0.19646     0.25624     0.30006      0.2055     0.17121      0.3095     0.97037      0.2153     0.40467     0.11552     0.10589     0.18406     0.46273     0.65568
0.17983      0.8781     0.19573     0.25849     0.30283     0.20788     0.17427     0.31247     0.97282     0.21816     0.40024    0.099915     0.10549     0.18573     0.44477     0.65031
0.17945     0.87711     0.19878     0.25837     0.30519     0.20977     0.17474     0.30352     0.97751     0.21847     0.41647     0.10056     0.10516     0.18743     0.43695     0.65532
0.1809     0.89703     0.19867     0.25896     0.30456     0.21146     0.17555     0.30254     0.99024     0.21993     0.40696     0.10511     0.10553     0.18852     0.44761      0.6572
0.17975     0.89382     0.19995     0.26048     0.30986     0.21468     0.17696     0.31157      1.0019     0.22108     0.41672      0.1058     0.10765      0.1905     0.45784     0.67163
0.18225     0.89464     0.20115      0.2639     0.31083     0.21497     0.18066      0.3134      1.0036     0.22271      0.4107     0.10902      0.1086     0.19054     0.45786     0.68112
0.18288     0.91129     0.20283     0.26359     0.30755     0.21309     0.17751     0.30646     0.98377     0.21785     0.40239    0.094623     0.10646     0.18854     0.44949     0.66967
0.18002     0.88187     0.19898     0.25657     0.29957     0.20798      0.1717      0.3068     0.96329     0.21491     0.40275     0.10466     0.10425     0.18538     0.44257     0.65072
0.17961     0.87476     0.19591     0.25335     0.29629     0.20425     0.16999     0.29472     0.97176      0.2123     0.40578     0.10397     0.10328     0.18388     0.44314     0.65177
0.17592     0.87477      0.1969     0.25466       0.298     0.20479     0.16845     0.30259     0.97139     0.21412      0.4062      0.1065     0.10429     0.18525     0.43144     0.64489
0.17546      0.8665     0.19558     0.25448      0.2988      0.2049     0.17039     0.30071     0.96482     0.21513     0.40376    0.098931     0.10342     0.18314     0.43509     0.63113
0.17526     0.88227     0.19809     0.25644     0.29838     0.20621     0.17174     0.31162     0.97637     0.21697      0.3954    0.096803     0.10541     0.18604      0.4422     0.65294
0.17856     0.87709      0.1972      0.2558     0.30097     0.21039     0.17314      0.2994     0.98298     0.21572     0.40118    0.095285     0.10509      0.1857     0.43775     0.64542
0.17893     0.90338     0.19862     0.25859     0.30478     0.21113     0.17344     0.30809      0.9738     0.21751     0.40381    0.094394     0.10827     0.18745     0.45608     0.65502
0.17978     0.88325     0.19927     0.26126      0.3046     0.21214     0.17609     0.31252     0.99316      0.2194     0.40476    0.094085     0.10634     0.18799     0.45413     0.66525
0.18062     0.90482     0.20195     0.26243     0.30889     0.21365     0.17765     0.29573     0.99296     0.22189     0.40272     0.11433     0.10886     0.18911     0.45983     0.66425
0.18205     0.90142     0.20351     0.26418     0.31242     0.21538     0.17926     0.32518      1.0002     0.22186     0.41225     0.11411     0.10827     0.19014      0.4641     0.65619
0.18418     0.89805     0.20116     0.25978     0.30491     0.20956     0.17332     0.29932     0.98281     0.21639     0.41912     0.10968     0.10502     0.18837      0.4517     0.65936
0.17738     0.87888     0.19882     0.25594     0.29845     0.20614     0.17131     0.29183     0.96844     0.21404     0.42087    0.098323     0.10467      0.1849     0.44552     0.64742
0.18051     0.87283     0.19728     0.25359     0.29631      0.2051      0.1682     0.29633     0.97016     0.21251     0.39713    0.094792     0.10581     0.18446     0.44724     0.64489
0.18245     0.87597     0.19622     0.25498     0.29759      0.2061     0.16933     0.29122      0.9586     0.21322     0.42048     0.10072     0.10625     0.18357     0.44273     0.61922
0.17947     0.87993     0.19671     0.25553     0.29893     0.20505     0.17069     0.29448     0.98028     0.21379     0.38938    0.099098     0.10509     0.18514     0.44173     0.63311
0.17704      0.8964     0.19674     0.25647     0.30057     0.20572     0.17295     0.30006     0.96772     0.21379      0.4213     0.11213     0.10491     0.18474      0.4315     0.64419
0.18051     0.88975     0.19778      0.2583     0.30428     0.20896     0.17302     0.29782     0.98153     0.21728     0.40955     0.09373     0.10714     0.18856     0.44982     0.66216
0.17939     0.88883     0.19979     0.25986     0.30517     0.21121     0.17419     0.31304     0.99581     0.21749     0.40684      0.1038      0.1068     0.18562     0.45288      0.6494
0.18298     0.88775     0.20045     0.26098     0.30847     0.21182      0.1771      0.3052     0.98504     0.22046     0.41042    0.094545     0.10712     0.18876     0.45006     0.66383
0.18154     0.89245     0.20224     0.26274     0.31046     0.21438     0.17864     0.31254     0.98781     0.22026     0.40602     0.10265     0.10874     0.18972     0.45233     0.67333
0.18362     0.91053     0.20229     0.26531     0.30757     0.21251     0.17757     0.30226     0.99609     0.21921      0.4201     0.10069     0.10637     0.18877     0.44484     0.65357
0.17997     0.88443     0.19845     0.26003     0.30053     0.20791     0.17238      0.3119     0.97879     0.21449     0.40495    0.095602     0.10567     0.18715     0.44696     0.64362
0.1778     0.89255     0.19788     0.25525     0.30054     0.20607     0.16892     0.30944     0.98269     0.21394     0.40113    0.093359     0.10406      0.1839     0.43417     0.64446
0.18041      0.8814     0.19808      0.2561       0.299     0.20636     0.17215     0.29394     0.97275     0.21455     0.39255    0.099677       0.105     0.18601     0.44022     0.63226
0.1783     0.89083     0.19739     0.25644     0.29976     0.20732     0.16983     0.30431     0.97305     0.21469     0.42198    0.094271     0.10506     0.18531     0.45736     0.65541
0.17887     0.88615     0.19768     0.25895     0.30233     0.20776     0.17381     0.31151      0.9743     0.21677     0.40505     0.10679     0.10642     0.18642      0.4455     0.64935
0.18217     0.88356     0.19948     0.26058       0.306     0.21196     0.17453     0.30203     0.97558     0.21811      0.4144    0.097019     0.10717     0.18892     0.44057     0.66472
0.17796      0.9008     0.20107     0.26244     0.30898     0.21415     0.17826     0.30603     0.98276     0.21954     0.39763    0.095653     0.10853     0.18931     0.45829     0.65975
0.18363     0.89334     0.20103     0.26468     0.30973     0.21538     0.17985     0.31257       1.003     0.22258     0.41929       0.101     0.10909     0.19053     0.46228     0.67428
0.18421     0.91008     0.20095     0.26496     0.31213     0.21476     0.18105       0.317     0.98363     0.22131     0.41337     0.10814     0.10952     0.19195     0.45724     0.66593
0.18223     0.90828     0.20319     0.26624     0.31478     0.21791     0.18146     0.31513     0.99266     0.22341     0.41418     0.11001      0.1084     0.19136     0.45193     0.66489
0.18285     0.88923     0.20089     0.25932      0.3051     0.20976     0.17515     0.31067     0.98045     0.21703     0.41611     0.10598     0.10768     0.18992      0.4387     0.65948
0.17759     0.88415     0.19885     0.25949     0.30279     0.20752     0.17266     0.29929     0.98299     0.21595     0.39851     0.11157     0.10561     0.18625      0.4358     0.65567
0.17926     0.87963     0.19767     0.25577     0.30364     0.20775     0.17252     0.29629     0.98404     0.21334      0.3938     0.11758     0.10628     0.18743      0.4516      0.6578
0.17677     0.86794     0.19973     0.25836     0.30387     0.20779     0.17313     0.30693     0.95873     0.21677     0.40734     0.10496      0.1077     0.18807     0.45458      0.6611
0.17803     0.87654      0.1964     0.25785     0.30446     0.21056     0.17489     0.31376     0.98546     0.21803     0.40049       0.105     0.10678     0.18801     0.44661     0.64511
0.1803     0.87985     0.19825     0.25725     0.30724     0.21239     0.17593     0.31338     0.98516     0.21733     0.39797     0.10131      0.1081      0.1885     0.44749       0.648
0.17943     0.87369     0.19963     0.26165     0.31058     0.21333     0.17691      0.3186     0.99944     0.21909     0.40753     0.10003     0.10823      0.1909     0.45048     0.67385
0.18171      0.9087     0.20044     0.26308     0.31333     0.21597     0.17956     0.31854     0.99644     0.22092     0.40905     0.10702     0.10951     0.19135     0.44421     0.65599
0.18048     0.88304     0.20332      0.2637     0.31517     0.21736     0.18125     0.31468     0.99007     0.22475     0.41986    0.094873     0.10982     0.19187     0.45885     0.68652
0.18045      0.8948     0.20295     0.26447     0.31829     0.21948     0.18195     0.31268     0.98602     0.22368     0.41907     0.10273     0.11243     0.19306      0.4713     0.66526
0.18386     0.88781     0.20186     0.26232     0.31133     0.21376     0.17756     0.30356     0.97692     0.21711     0.40366    0.088753     0.10892     0.18945     0.45885     0.67276
0.17968     0.89558     0.19867      0.2579      0.3057     0.21014     0.17303     0.30516     0.98273     0.21632     0.41287     0.10068     0.10776     0.18995     0.44071     0.65109
0.17923     0.88157     0.19745     0.25589     0.30325     0.20735     0.17296      0.3153     0.98767     0.21362     0.40929    0.099377     0.10495     0.18713     0.43757     0.65433
0.18073     0.87719       0.198     0.25642     0.30448     0.20815     0.17351     0.30077      0.9774     0.21553     0.41625    0.096979     0.10734     0.18676     0.44573     0.64964
0.17989     0.87838     0.19652     0.25911     0.30457     0.20812     0.17517     0.30701     0.98339      0.2176     0.40563     0.10675     0.10636     0.18903     0.45823     0.66526
0.17885     0.87943     0.20031     0.25953     0.30677     0.21055     0.17429     0.30096     0.97366     0.21903     0.40482     0.10184     0.10771     0.18736     0.43921     0.66712
0.1794     0.89111     0.20122     0.26088     0.30891     0.21276     0.17667     0.31364     0.97805     0.21833     0.42656     0.09956     0.10833      0.1894      0.4461     0.65742
0.17898     0.89694     0.19975     0.26216     0.31223     0.21567     0.17741     0.31082     0.97916     0.22206     0.41041    0.086907     0.10869     0.19245     0.46884     0.66009
0.18119     0.89989     0.20168     0.26466     0.31315     0.21657     0.17884     0.32354       1.002     0.22324     0.41947     0.11146     0.11068     0.19191     0.45489     0.68313
0.18215     0.89855     0.20342      0.2647      0.3148     0.21771     0.18144     0.32675     0.99851     0.22294     0.40868    0.099993      0.1107     0.19271     0.46519     0.67249
0.18264     0.90368     0.20431     0.26666     0.31348     0.21518     0.17907     0.31282     0.99798     0.22021     0.42426     0.11077      0.1092     0.19138     0.45877     0.68683
0.18386     0.88454     0.19962     0.25847     0.30601     0.20955     0.17436      0.2994     0.96678     0.21639     0.40558    0.097371     0.10755     0.18873     0.45104     0.64962
0.18083     0.87962     0.19757     0.25592       0.303     0.20831     0.17353     0.30077     0.98564     0.21467     0.39872     0.10694      0.1058     0.18721     0.43339     0.65206
0.17732     0.88558     0.19691      0.2571     0.30367     0.20981     0.17418     0.30303     0.96947     0.21479     0.40716    0.094049     0.10601     0.18635     0.45787     0.65732
0.17991     0.88181      0.1967     0.25542     0.30377     0.20627     0.17359     0.29902     0.98047     0.21563       0.402     0.10252     0.10598     0.18674     0.44489     0.65528
0.17848     0.87412     0.19683     0.25704     0.30577     0.20919     0.17518     0.30077     0.98459     0.21547     0.40953     0.10882     0.10669       0.189     0.44423     0.66239
0.18089     0.88868     0.19867     0.25844     0.30704     0.21076     0.17623     0.30948     0.98482     0.21707     0.40159     0.11987     0.10723     0.18866     0.45018      0.6543
0.18029     0.86852     0.20008        0.26     0.31087      0.2135     0.17839     0.29862     0.98669     0.21875     0.40098     0.10439     0.10762      0.1898     0.46172     0.65873
0.18288     0.89715     0.20116     0.26359      0.3122     0.21539     0.18178      0.3062     0.98529     0.22052     0.41781     0.12297     0.10954     0.19052     0.45486     0.67309
0.18091     0.89123     0.20333     0.26272      0.3146       0.217     0.18062     0.31955     0.99207     0.22271     0.41465     0.10669      0.1095     0.19288     0.46105     0.66913
0.18301     0.89955     0.20316      0.2661     0.31824     0.21823     0.18402     0.32424     0.99102     0.22361     0.41621    0.095936     0.10984      0.1937     0.46499     0.67368
0.17885      0.9052      0.2014     0.26269     0.31153     0.21352     0.17723     0.31005     0.98391     0.21636     0.39972    0.097802     0.10845      0.1892     0.44174     0.65693
0.18199     0.87205     0.19786     0.25718     0.30463     0.20835     0.17427     0.29855     0.96976      0.2158     0.42229    0.093502     0.10611     0.18651      0.4521     0.65453
0.17957      0.8746     0.19523     0.25492     0.30242     0.20667     0.17172     0.30059     0.96753     0.21392     0.39993     0.11243     0.10459     0.18721     0.43898     0.64763
0.18051     0.87349     0.19664     0.25612     0.30322     0.20732     0.17258     0.29799     0.97112     0.21366      0.4041    0.097051     0.10558     0.18532     0.44495     0.64032
0.17806     0.88709     0.19701     0.25743     0.30439     0.20806     0.17386     0.29597     0.97299     0.21491     0.41368    0.096681     0.10561     0.18671     0.43431     0.65557
0.18043     0.86788      0.1982     0.25691      0.3046     0.20942     0.17514     0.30719     0.97554      0.2159     0.40231     0.10263     0.10529     0.18763     0.45703     0.63908
0.17817     0.87639     0.19822     0.25882     0.30775     0.21125     0.17868     0.30931     0.97582     0.21772     0.40325     0.10371     0.10733     0.18953     0.45224     0.66678
0.17899     0.89543     0.19992     0.26068     0.31028     0.21173     0.17857     0.31831     0.98424      0.2182     0.40146     0.10013      0.1071     0.18912     0.45774     0.67369
0.17986      0.8937     0.20058     0.26348     0.31295     0.21556     0.18063     0.31288     0.97066     0.22027      0.4017     0.10771     0.10876     0.19114     0.45247     0.67492
0.18221     0.91001     0.20303     0.26452     0.31479     0.21629     0.18252     0.32635     0.98421     0.22041      0.4125     0.10362     0.10845     0.19237     0.45872     0.68203
0.18054     0.90285     0.20386     0.26443     0.31451      0.2167     0.17996     0.31861     0.98732     0.21889     0.41497    0.094751     0.10818     0.19071     0.45259     0.66675
0.17885     0.89188     0.19967     0.25711     0.30646     0.20824     0.17378     0.30135     0.97836     0.21502     0.40223     0.10864     0.10721     0.18726     0.44047     0.67225
0.17819     0.87556     0.19873     0.25575     0.30341     0.20652     0.17264     0.30981      0.9632     0.21031     0.39359    0.094734     0.10483     0.18748     0.44187     0.63469
0.1783     0.89866     0.19586     0.25543     0.30382     0.20628     0.17358     0.30829     0.97617     0.21267     0.41688    0.092483     0.10576     0.18753     0.45411      0.6451
0.17657     0.89541     0.19747     0.25603     0.30357     0.20779     0.17408     0.29587     0.96359     0.21362     0.40604    0.097196      0.1062     0.18788     0.44784     0.66217
0.17969      0.8774     0.19773      0.2555     0.30647     0.20988     0.17575     0.32466     0.97436     0.21426     0.39856     0.11539     0.10843      0.1886     0.45104      0.6506
0.18081     0.87171     0.19909     0.25908     0.30767     0.21088      0.1755     0.30741     0.97966     0.21502     0.40713     0.10492      0.1086     0.18899     0.44799     0.65844
0.17969     0.89884     0.20204     0.26077      0.3106     0.21223     0.17825      0.3184     0.98609     0.21791     0.41362     0.10557     0.10815        0.19     0.45887      0.6856
0.18022     0.89408     0.20339     0.26027     0.31301     0.21445     0.18071     0.30912     0.99526     0.21918     0.40588     0.11693     0.10937     0.19095     0.46061     0.65707
0.18297     0.89742      0.2027     0.26296     0.31587     0.21761     0.18301     0.33544     0.98834     0.22013     0.40794     0.11966     0.11089     0.19369     0.46811     0.66973
0.18325     0.88826     0.20266     0.26201     0.31088     0.21441     0.17841     0.31672     0.97522     0.21693     0.40943     0.10257     0.10734     0.19044     0.45744     0.66139
0.17919     0.88862      0.1995     0.25619     0.30593     0.20877     0.17291     0.30947     0.96744     0.21395     0.40511     0.09741     0.10767     0.18657     0.44549     0.65087
0.17959     0.86652     0.19679     0.25459     0.30354     0.20626     0.17306     0.29717     0.97237     0.21334     0.40216    0.095324     0.10677     0.18686     0.43438     0.65844
0.17931     0.86772      0.1976      0.2551     0.30399     0.20872     0.17416     0.28871     0.96681     0.21322     0.41504    0.095871     0.10591     0.18824     0.43699     0.65288
0.17799      0.8728     0.19762     0.25487     0.30431     0.20995     0.17485     0.30166     0.98492     0.21374     0.40616     0.11416     0.10694     0.18797      0.4525      0.6706
0.17819     0.88151     0.19898     0.25804     0.30569     0.21129     0.17514     0.30469     0.97879     0.21526     0.39399     0.10179      0.1082     0.18687     0.44753     0.66546
0.18058     0.88313     0.19983     0.25874     0.30954     0.21075     0.17836     0.30615     0.98547     0.21696     0.39331     0.10456      0.1099     0.19191       0.464     0.67333
0.17836     0.89241      0.2001     0.25973     0.31308     0.21339     0.18011      0.3136     0.97603     0.21821     0.41067     0.10838     0.10914     0.19007     0.46171     0.65719
0.18174     0.88733     0.20254     0.26147     0.31257     0.21632     0.18093     0.30706     0.98441      0.2193     0.39408     0.10164     0.10831     0.19203       0.446      0.6753
0.18387      0.8964     0.20182     0.26278     0.31488     0.21895     0.18187     0.32369     0.98835     0.22119     0.40206    0.085422     0.11032     0.19284     0.45194     0.68456
0.18073     0.89535     0.20338     0.26338     0.31119     0.21393      0.1774       0.311      0.9944     0.21722      0.4048     0.11533     0.10831     0.18941     0.45505     0.65913
0.17815     0.87994     0.19963     0.25587     0.30417     0.20913     0.17349     0.31332     0.97895     0.21457     0.40406     0.12271     0.10626     0.18823     0.45548     0.64779
0.17587     0.87943     0.19818     0.25537     0.30261     0.20771     0.17251     0.30012     0.98162     0.21106     0.39681     0.11548     0.10665      0.1888     0.44125     0.64268
0.17941     0.87112     0.19677     0.25478     0.30319     0.20828     0.17272     0.29369     0.97297     0.21362     0.40477     0.10207     0.10594     0.18664     0.44481     0.64866
0.17537     0.87573     0.19877     0.25474      0.3034     0.20777     0.17439     0.31569     0.97379     0.21314      0.4061    0.096121     0.10692     0.18615     0.43994     0.65089
0.17532     0.86938     0.19885     0.25657     0.30492     0.21012     0.17509     0.29922     0.97435      0.2156     0.39647     0.11495     0.10591     0.18759     0.44301      0.6648
0.1791     0.87643      0.1986     0.25687     0.30882     0.21164     0.17577     0.30024     0.96747     0.21777     0.41949    0.089109     0.10752     0.18997     0.45907     0.63973
0.18013     0.86817     0.19989     0.26001     0.31007     0.21374     0.17805     0.30858     0.97401     0.21804     0.40035     0.10261     0.10732     0.19035     0.45391      0.6496
